8.006000 5.750000 2.400000
8.021400 5.450000 2.330000
8.036800 5.690000 2.390000
8.052200 5.760000 2.400000
8.067600 5.690000 2.390000
8.083000 5.350000 2.310000
8.098400 5.220000 2.280000
8.113800 5.190000 2.280000
8.129200 5.290000 2.300000
8.144600 5.440000 2.330000
8.160000 5.300000 2.300000
8.175400 5.740000 2.400000
8.190800 6.070000 2.460000
8.206200 5.780000 2.400000
8.221600 5.780000 2.400000
8.237000 5.740000 2.390000
8.252400 5.460000 2.340000
8.267800 5.790000 2.410000
8.283200 5.380000 2.320000
8.298600 5.480000 2.340000
8.314000 5.220000 2.290000
8.329400 5.530000 2.350000
8.344800 5.470000 2.340000
8.360200 5.550000 2.360000
8.375600 5.470000 2.340000
8.391000 5.300000 2.300000
8.406400 5.740000 2.400000
8.421800 5.300000 2.300000
8.437200 5.710000 2.390000
8.452600 5.350000 2.310000
8.468000 5.440000 2.330000
8.483400 5.810000 2.410000
8.498800 6.170000 2.480000
8.514200 5.600000 2.370000
8.529600 5.540000 2.350000
8.545000 5.690000 2.380000
8.560400 6.110000 2.470000
8.575800 6.040000 2.460000
8.591200 6.070000 2.460000
8.606600 6.470000 2.540000
8.622000 7.090000 2.660000
8.637400 6.840000 2.610000
8.652800 6.790000 2.610000
8.668200 8.240000 2.870000
8.683600 7.950000 2.820000
8.699000 8.790000 2.960000
8.714400 8.770000 2.960000
8.729800 10.020000 3.170000
8.745200 11.840000 3.440000
8.760600 13.280000 3.640000
8.776000 14.720000 3.840000
8.791400 17.760000 4.210000
8.806800 19.160000 4.380000
8.822200 23.240000 4.820000
8.837600 25.360000 5.040000
8.853000 26.820000 5.180000
8.868400 25.910000 5.090000
8.883800 22.730000 4.770000
8.899200 18.190000 4.260000
8.914600 14.060000 3.750000
8.930000 11.430000 3.380000
8.945400 9.070000 3.010000
8.960800 7.710000 2.780000
8.976200 6.730000 2.590000
8.991600 6.240000 2.500000
9.007000 6.700000 2.590000
9.022400 5.310000 2.300000
9.037800 5.050000 2.250000
9.053200 5.320000 2.310000
9.068600 5.860000 2.420000
9.084000 4.930000 2.220000
9.099400 5.410000 2.330000
9.114800 5.240000 2.290000
9.130200 5.110000 2.260000
9.145600 5.250000 2.290000
9.161000 5.160000 2.270000
9.176400 4.830000 2.200000
9.191800 5.470000 2.340000
9.207200 4.750000 2.180000
9.222600 5.400000 2.320000
9.238000 4.780000 2.190000
9.253400 5.000000 2.240000
9.268800 5.590000 2.370000
9.284200 4.950000 2.230000
9.299600 5.400000 2.320000
9.315000 4.870000 2.210000
9.330400 5.130000 2.270000
9.345800 4.750000 2.180000
9.361200 4.610000 2.150000
9.376600 4.730000 2.170000
9.392000 4.990000 2.230000
9.407400 4.950000 2.220000
9.422800 4.720000 2.170000
9.438200 4.890000 2.210000
9.453600 4.410000 2.100000
9.469000 4.810000 2.190000
9.484400 5.360000 2.320000
9.499800 5.430000 2.330000
9.515200 4.570000 2.140000
9.530600 4.580000 2.140000
9.546000 5.020000 2.240000
9.561400 5.190000 2.280000
9.576800 4.860000 2.210000
9.592200 5.250000 2.290000
9.607600 4.800000 2.190000
9.623000 4.850000 2.200000
9.638400 5.090000 2.260000
9.653800 4.700000 2.170000
9.669200 5.090000 2.260000
9.684600 4.850000 2.200000
9.700000 4.560000 2.140000
9.715400 5.250000 2.290000
9.730800 4.980000 2.230000
9.746200 4.490000 2.120000
9.761600 4.940000 2.220000
9.777000 4.750000 2.180000
9.792400 4.680000 2.160000
9.807800 4.790000 2.190000
9.823200 5.420000 2.330000
9.838600 4.340000 2.080000
9.854000 4.220000 2.050000
9.869400 4.620000 2.150000
9.884800 4.530000 2.130000
9.900200 4.570000 2.140000
9.915600 4.640000 2.150000
9.931000 4.690000 2.170000
9.946400 4.770000 2.180000
9.961800 4.880000 2.210000
9.977200 4.760000 2.180000
9.992600 4.840000 2.200000
10.008000 5.270000 2.300000
10.023400 5.050000 2.250000
10.038800 4.710000 2.170000
10.054200 4.710000 2.170000
10.069600 4.580000 2.140000
10.085000 4.650000 2.160000
10.100400 4.990000 2.230000
10.115800 4.640000 2.150000
10.131200 4.760000 2.180000
10.146600 5.000000 2.240000
10.162000 4.300000 2.070000
10.177400 4.520000 2.130000
10.192800 4.440000 2.110000
10.208200 4.750000 2.180000
10.223600 5.190000 2.280000
10.239000 4.810000 2.190000
10.254400 4.950000 2.220000
10.269800 5.040000 2.250000
10.285200 4.800000 2.190000
10.300600 4.800000 2.190000
10.316000 5.050000 2.250000
10.331400 4.550000 2.130000
10.346800 4.630000 2.150000
10.362200 4.450000 2.110000
10.377600 5.050000 2.250000
10.393000 4.710000 2.170000
10.408400 4.560000 2.140000
10.423800 4.840000 2.200000
10.439200 4.830000 2.200000
10.454600 4.840000 2.200000
10.470000 4.000000 2.000000
10.485400 4.870000 2.210000
10.500800 4.790000 2.190000
10.516200 4.280000 2.070000
10.531600 5.110000 2.260000
10.547000 4.550000 2.130000
10.562400 4.890000 2.210000
10.577800 4.910000 2.220000
10.593200 4.750000 2.180000
10.608600 4.920000 2.220000
10.624000 4.740000 2.180000
10.639400 5.350000 2.310000
10.654800 4.530000 2.130000
10.670200 5.060000 2.250000
10.685600 4.830000 2.200000
10.701000 4.770000 2.180000
10.716400 4.710000 2.170000
10.731800 4.370000 2.090000
10.747200 5.340000 2.310000
10.762600 4.850000 2.200000
10.778000 4.680000 2.160000
10.793400 4.690000 2.170000
10.808800 4.700000 2.170000
10.824200 5.250000 2.290000
10.839600 5.040000 2.240000
10.855000 4.640000 2.150000
10.870400 4.910000 2.220000
10.885800 4.880000 2.210000
10.901200 5.130000 2.270000
10.916600 4.640000 2.150000
10.932000 5.330000 2.310000
10.947400 4.850000 2.200000
10.962800 5.600000 2.370000
10.978200 4.910000 2.220000
10.993600 5.370000 2.320000
11.009000 5.640000 2.380000
11.024400 5.660000 2.380000
11.039800 6.500000 2.550000
11.055200 6.260000 2.500000
11.070600 6.730000 2.590000
11.086000 7.840000 2.800000
11.101400 8.920000 2.990000
11.116800 9.570000 3.090000
11.132200 11.320000 3.370000
11.147600 13.890000 3.730000
11.163000 15.840000 3.980000
11.178400 19.810000 4.450000
11.193800 23.340000 4.830000
11.209200 28.300000 5.320000
11.224600 35.440000 5.950000
11.240000 41.040000 6.410000
11.255400 47.510000 6.890000
11.270800 51.410000 7.170000
11.286200 53.250000 7.300000
11.301600 46.560000 6.820000
11.317000 39.200000 6.260000
11.332400 27.960000 5.290000
11.347800 20.210000 4.500000
11.363200 14.980000 3.870000
11.378600 10.190000 3.190000
11.394000 8.590000 2.930000
11.409400 7.400000 2.720000
11.424800 6.310000 2.510000
11.440200 5.610000 2.370000
11.455600 5.530000 2.350000
11.471000 5.680000 2.380000
11.486400 4.950000 2.220000
11.501800 5.350000 2.310000
11.517200 5.090000 2.260000
11.532600 4.780000 2.190000
11.548000 4.630000 2.150000
11.563400 4.810000 2.190000
11.578800 4.890000 2.210000
11.594200 4.590000 2.140000
11.609600 4.950000 2.220000
11.625000 5.260000 2.290000
11.640400 4.300000 2.070000
11.655800 4.650000 2.160000
11.671200 4.670000 2.160000
11.686600 4.270000 2.070000
11.702000 4.480000 2.120000
11.717400 4.210000 2.050000
11.732800 4.410000 2.100000
11.748200 4.800000 2.190000
11.763600 4.560000 2.140000
11.779000 4.290000 2.070000
11.794400 4.860000 2.200000
11.809800 4.290000 2.070000
11.825200 4.610000 2.150000
11.840600 5.000000 2.240000
11.856000 4.450000 2.110000
11.871400 4.160000 2.040000
11.886800 4.810000 2.190000
11.902200 4.520000 2.130000
11.917600 5.080000 2.250000
11.933000 4.410000 2.100000
11.948400 4.590000 2.140000
11.963800 5.290000 2.300000
11.979200 5.220000 2.280000
11.994600 5.220000 2.290000
12.010000 6.020000 2.450000
12.025400 5.910000 2.430000
12.040800 6.600000 2.570000
12.056200 7.380000 2.720000
12.071600 8.180000 2.860000
12.087000 8.720000 2.950000
12.102400 8.450000 2.910000
12.117800 8.350000 2.890000
12.133200 8.250000 2.870000
12.148600 7.350000 2.710000
12.164000 6.540000 2.560000
12.179400 5.390000 2.320000
12.194800 5.480000 2.340000
12.210200 4.950000 2.230000
12.225600 5.250000 2.290000
12.241000 4.270000 2.070000
12.256400 4.370000 2.090000
12.271800 4.490000 2.120000
12.287200 4.140000 2.030000
12.302600 4.150000 2.040000
12.318000 4.360000 2.090000
12.333400 4.100000 2.020000
12.348800 4.230000 2.060000
12.364200 4.320000 2.080000
12.379600 4.040000 2.010000
12.395000 4.380000 2.090000
12.410400 3.820000 1.960000
12.425800 3.930000 1.980000
12.441200 4.550000 2.130000
12.456600 4.550000 2.130000
12.472000 4.480000 2.120000
12.487400 3.800000 1.950000
12.502800 4.460000 2.110000
12.518200 4.300000 2.070000
12.533600 3.700000 1.920000
12.549000 4.100000 2.020000
12.564400 4.540000 2.130000
12.579800 4.350000 2.090000
12.595200 4.200000 2.050000
12.610600 4.580000 2.140000
12.626000 4.380000 2.090000
12.641400 4.220000 2.050000
12.656800 4.290000 2.070000
12.672200 4.530000 2.130000
12.687600 4.020000 2.010000
12.703000 4.470000 2.110000
12.718400 3.910000 1.980000
12.733800 4.010000 2.000000
12.749200 4.660000 2.160000
12.764600 4.240000 2.060000
12.780000 4.060000 2.020000
12.795400 3.600000 1.900000
12.810800 3.730000 1.930000
12.826200 4.210000 2.050000
12.841600 4.520000 2.120000
12.857000 4.420000 2.100000
12.872400 4.010000 2.000000
12.887800 3.950000 1.990000
12.903200 4.510000 2.120000
12.918600 4.020000 2.000000
12.934000 4.350000 2.080000
12.949400 4.190000 2.050000
12.964800 4.600000 2.140000
12.980200 4.030000 2.010000
12.995600 4.660000 2.160000
13.011000 4.290000 2.070000
13.026400 4.340000 2.080000
13.041800 4.210000 2.050000
13.057200 4.100000 2.030000
13.072600 4.150000 2.040000
13.088000 4.120000 2.030000
13.103400 4.460000 2.110000
13.118800 4.480000 2.120000
13.134200 4.440000 2.110000
13.149600 4.360000 2.090000
13.165000 4.720000 2.170000
13.180400 4.230000 2.060000
13.195800 4.340000 2.080000
13.211200 3.910000 1.980000
13.226600 4.110000 2.030000
13.242000 4.010000 2.000000
13.257400 4.600000 2.140000
13.272800 4.470000 2.110000
13.288200 4.200000 2.050000
13.303600 4.080000 2.020000
13.319000 4.010000 2.000000
13.334400 4.900000 2.210000
13.349800 4.410000 2.100000
13.365200 4.780000 2.190000
13.380600 4.200000 2.050000
13.396000 4.030000 2.010000
13.411400 4.620000 2.150000
13.426800 4.840000 2.200000
13.442200 4.910000 2.220000
13.457600 4.510000 2.120000
13.473000 5.070000 2.250000
13.488400 5.750000 2.400000
13.503800 6.350000 2.520000
13.519200 7.400000 2.720000
13.534600 7.820000 2.800000
13.550000 9.320000 3.050000
13.565400 11.420000 3.380000
13.580800 13.150000 3.630000
13.596200 17.620000 4.200000
13.611600 19.560000 4.420000
13.627000 23.490000 4.850000
13.642400 26.790000 5.180000
13.657800 28.850000 5.370000
13.673200 27.780000 5.270000
13.688600 25.400000 5.040000
13.704000 20.130000 4.490000
13.719400 15.130000 3.890000
13.734800 11.260000 3.360000
13.750200 8.560000 2.930000
13.765600 7.080000 2.660000
13.781000 5.850000 2.420000
13.796400 5.460000 2.340000
13.811800 4.830000 2.200000
13.827200 4.540000 2.130000
13.842600 4.680000 2.160000
13.858000 5.050000 2.250000
13.873400 4.230000 2.060000
13.888800 4.180000 2.040000
13.904200 4.430000 2.110000
13.919600 4.010000 2.000000
13.935000 4.050000 2.010000
13.950400 4.630000 2.150000
13.965800 3.720000 1.930000
13.981200 4.150000 2.040000
13.996600 3.970000 1.990000
14.012000 4.350000 2.080000
14.027400 3.820000 1.960000
14.042800 4.080000 2.020000
14.058200 4.110000 2.030000
14.073600 3.930000 1.980000
14.089000 3.910000 1.980000
14.104400 4.070000 2.020000
14.119800 4.060000 2.020000
14.135200 3.990000 2.000000
14.150600 4.010000 2.000000
14.166000 3.950000 1.990000
14.181400 4.290000 2.070000
14.196800 4.340000 2.080000
14.212200 4.300000 2.070000
14.227600 3.650000 1.910000
14.243000 4.110000 2.030000
14.258400 4.130000 2.030000
14.273800 3.890000 1.970000
14.289200 4.200000 2.050000
14.304600 4.250000 2.060000
14.320000 4.130000 2.030000
14.335400 4.230000 2.060000
14.350800 4.270000 2.070000
14.366200 4.050000 2.010000
14.381600 3.890000 1.970000
14.397000 3.860000 1.960000
14.412400 3.970000 1.990000
14.427800 3.930000 1.980000
14.443200 3.890000 1.970000
14.458600 4.020000 2.000000
14.474000 3.980000 2.000000
14.489400 4.220000 2.050000
14.504800 3.720000 1.930000
14.520200 3.880000 1.970000
14.535600 4.030000 2.010000
14.551000 4.150000 2.040000
14.566400 3.940000 1.980000
14.581800 4.010000 2.000000
14.597200 3.900000 1.980000
14.612600 3.890000 1.970000
14.628000 4.280000 2.070000
14.643400 3.760000 1.940000
14.658800 4.330000 2.080000
14.674200 4.300000 2.070000
14.689600 3.630000 1.910000
14.705000 3.940000 1.990000
14.720400 3.910000 1.980000
14.735800 4.210000 2.050000
14.751200 3.640000 1.910000
14.766600 4.190000 2.050000
14.782000 3.810000 1.950000
14.797400 4.330000 2.080000
14.812800 4.170000 2.040000
14.828200 4.310000 2.080000
14.843600 4.010000 2.000000
14.859000 4.350000 2.090000
14.874400 4.240000 2.060000
14.889800 4.220000 2.060000
14.905200 4.400000 2.100000
14.920600 4.050000 2.010000
14.936000 3.860000 1.970000
14.951400 4.130000 2.030000
14.966800 3.990000 2.000000
14.982200 3.950000 1.990000
14.997600 4.010000 2.000000
15.013000 4.560000 2.130000
15.028400 3.620000 1.900000
15.043800 4.060000 2.020000
15.059200 4.120000 2.030000
15.074600 4.460000 2.110000
15.090000 3.860000 1.970000
15.105400 3.770000 1.940000
15.120800 4.160000 2.040000
15.136200 4.320000 2.080000
15.151600 4.460000 2.110000
15.167000 3.800000 1.950000
15.182400 3.860000 1.970000
15.197800 4.340000 2.080000
15.213200 4.100000 2.020000
15.228600 3.620000 1.900000
15.244000 4.210000 2.050000
15.259400 3.780000 1.950000
15.274800 4.140000 2.030000
15.290200 4.060000 2.010000
15.305600 3.800000 1.950000
15.321000 3.920000 1.980000
15.336400 4.190000 2.050000
15.351800 4.070000 2.020000
15.367200 4.030000 2.010000
15.382600 4.020000 2.010000
15.398000 4.100000 2.020000
15.413400 3.750000 1.940000
15.428800 3.700000 1.920000
15.444200 4.270000 2.070000
15.459600 3.970000 1.990000
15.475000 3.800000 1.950000
15.490400 3.820000 1.960000
15.505800 3.760000 1.940000
15.521200 4.150000 2.040000
15.536600 4.000000 2.000000
15.552000 4.120000 2.030000
15.567400 3.830000 1.960000
15.582800 3.820000 1.950000
15.598200 3.920000 1.980000
15.613600 3.840000 1.960000
15.629000 3.970000 1.990000
15.644400 4.200000 2.050000
15.659800 4.150000 2.040000
15.675200 4.230000 2.060000
15.690600 3.750000 1.940000
15.706000 3.880000 1.970000
15.721400 3.880000 1.970000
15.736800 4.240000 2.060000
15.752200 3.750000 1.940000
15.767600 4.030000 2.010000
15.783000 4.130000 2.030000
15.798400 4.330000 2.080000
15.813800 3.900000 1.970000
15.829200 4.090000 2.020000
15.844600 3.860000 1.970000
15.860000 4.010000 2.000000
15.875400 3.840000 1.960000
15.890800 4.260000 2.060000
15.906200 4.140000 2.030000
15.921600 4.200000 2.050000
15.937000 4.310000 2.080000
15.952400 4.070000 2.020000
15.967800 4.360000 2.090000
15.983200 3.930000 1.980000
15.998600 4.190000 2.050000
16.014000 4.400000 2.100000
16.029400 4.690000 2.170000
16.044800 3.700000 1.920000
16.060200 4.290000 2.070000
16.075600 4.160000 2.040000
16.091000 4.160000 2.040000
16.106400 4.390000 2.100000
16.121800 4.470000 2.110000
16.137200 4.380000 2.090000
16.152600 5.010000 2.240000
16.168000 5.170000 2.270000
16.183400 5.640000 2.370000
16.198800 6.400000 2.530000
16.214200 6.450000 2.540000
16.229600 7.970000 2.820000
16.245000 9.130000 3.020000
16.260400 9.650000 3.110000
16.275800 10.640000 3.260000
16.291200 11.980000 3.460000
16.306600 11.940000 3.450000
16.322000 11.140000 3.340000
16.337400 9.610000 3.100000
16.352800 7.730000 2.780000
16.368200 6.860000 2.620000
16.383600 5.890000 2.430000
16.399000 4.680000 2.160000
16.414400 4.720000 2.170000
16.429800 4.250000 2.060000
16.445200 4.250000 2.060000
16.460600 4.400000 2.100000
16.476000 4.150000 2.040000
16.491400 4.010000 2.000000
16.506800 4.110000 2.030000
16.522200 4.190000 2.050000
16.537600 4.190000 2.050000
16.553000 4.320000 2.080000
16.568400 4.310000 2.080000
16.583800 3.760000 1.940000
16.599200 4.160000 2.040000
16.614600 3.810000 1.950000
16.630000 4.110000 2.030000
16.645400 3.880000 1.970000
16.660800 4.090000 2.020000
16.676200 4.120000 2.030000
16.691600 4.100000 2.020000
16.707000 3.860000 1.960000
16.722400 3.950000 1.990000
16.737800 4.040000 2.010000
16.753200 3.890000 1.970000
16.768600 3.910000 1.980000
16.784000 3.960000 1.990000
16.799400 4.010000 2.000000
16.814800 4.510000 2.120000
16.830200 4.020000 2.010000
16.845600 4.330000 2.080000
16.861000 4.040000 2.010000
16.876400 4.330000 2.080000
16.891800 4.250000 2.060000
16.907200 4.010000 2.000000
16.922600 4.180000 2.040000
16.938000 3.740000 1.930000
16.953400 4.350000 2.090000
16.968800 4.180000 2.040000
16.984200 4.180000 2.040000
16.999600 4.250000 2.060000
17.015000 4.190000 2.050000
17.030400 3.830000 1.960000
17.045800 4.330000 2.080000
17.061200 4.420000 2.100000
17.076600 4.350000 2.090000
17.092000 4.310000 2.080000
17.107400 4.460000 2.110000
17.122800 4.190000 2.050000
17.138200 4.580000 2.140000
17.153600 4.520000 2.130000
17.169000 4.680000 2.160000
17.184400 4.770000 2.190000
17.199800 5.260000 2.290000
17.215200 4.340000 2.080000
17.230600 4.550000 2.130000
17.246000 5.060000 2.250000
17.261400 5.000000 2.240000
17.276800 4.840000 2.200000
17.292200 4.970000 2.230000
17.307600 4.890000 2.210000
17.323000 4.940000 2.220000
17.338400 4.970000 2.230000
17.353800 5.240000 2.290000
17.369200 5.390000 2.320000
17.384600 5.340000 2.310000
17.400000 5.210000 2.280000
17.415400 5.290000 2.300000
17.430800 5.440000 2.330000
17.446200 5.420000 2.330000
17.461600 5.040000 2.250000
17.477000 5.660000 2.380000
17.492400 5.250000 2.290000
17.507800 5.970000 2.440000
17.523200 6.110000 2.470000
17.538600 6.740000 2.600000
17.554000 6.850000 2.620000
17.569400 7.590000 2.760000
17.584800 8.950000 2.990000
17.600200 11.020000 3.320000
17.615600 13.610000 3.690000
17.631000 17.120000 4.140000
17.646400 22.730000 4.770000
17.661800 29.430000 5.430000
17.677200 37.000000 6.080000
17.692600 47.100000 6.860000
17.708000 58.570000 7.650000
17.723400 69.800000 8.350000
17.738800 76.260000 8.730000
17.754200 76.050000 8.720000
17.769600 69.590000 8.340000
17.785000 56.070000 7.490000
17.800400 43.440000 6.590000
17.815800 31.670000 5.630000
17.831200 21.700000 4.660000
17.846600 16.090000 4.010000
17.862000 11.850000 3.440000
17.877400 10.730000 3.280000
17.892800 10.470000 3.240000
17.908200 10.850000 3.290000
17.923600 12.050000 3.470000
17.939000 11.990000 3.460000
17.954400 13.160000 3.630000
17.969800 15.490000 3.940000
17.985200 15.700000 3.960000
18.000600 15.410000 3.930000
18.016000 14.150000 3.760000
18.031400 12.700000 3.560000
18.046800 10.670000 3.270000
18.062200 9.060000 3.010000
18.077600 7.560000 2.750000
18.093000 6.460000 2.540000
18.108400 6.000000 2.450000
18.123800 6.370000 2.520000
18.139200 6.190000 2.490000
18.154600 6.330000 2.520000
18.170000 6.900000 2.630000
18.185400 8.220000 2.870000
18.200800 9.290000 3.050000
18.216200 10.860000 3.300000
18.231600 12.660000 3.560000
18.247000 14.860000 3.860000
18.262400 16.770000 4.100000
18.277800 17.590000 4.190000
18.293200 16.530000 4.070000
18.308600 16.710000 4.090000
18.324000 14.050000 3.750000
18.339400 11.400000 3.380000
18.354800 9.030000 3.010000
18.370200 7.580000 2.750000
18.385600 6.040000 2.460000
18.401000 5.730000 2.390000
18.416400 5.020000 2.240000
18.431800 4.400000 2.100000
18.447200 4.370000 2.090000
18.462600 4.510000 2.120000
18.478000 4.570000 2.140000
18.493400 3.930000 1.980000
18.508800 4.120000 2.030000
18.524200 4.330000 2.080000
18.539600 3.970000 1.990000
18.555000 4.000000 2.000000
18.570400 4.060000 2.010000
18.585800 4.200000 2.050000
18.601200 4.000000 2.000000
18.616600 3.830000 1.960000
18.632000 3.880000 1.970000
18.647400 3.880000 1.970000
18.662800 3.890000 1.970000
18.678200 4.090000 2.020000
18.693600 4.110000 2.030000
18.709000 4.040000 2.010000
18.724400 4.040000 2.010000
18.739800 3.990000 2.000000
18.755200 3.880000 1.970000
18.770600 4.040000 2.010000
18.786000 3.970000 1.990000
18.801400 4.150000 2.040000
18.816800 3.920000 1.980000
18.832200 3.900000 1.980000
18.847600 3.970000 1.990000
18.863000 3.990000 2.000000
18.878400 3.890000 1.970000
18.893800 4.060000 2.020000
18.909200 3.960000 1.990000
18.924600 3.930000 1.980000
18.940000 4.160000 2.040000
18.955400 3.680000 1.920000
18.970800 4.000000 2.000000
18.986200 3.670000 1.920000
19.001600 3.770000 1.940000
19.017000 3.820000 1.950000
19.032400 4.000000 2.000000
19.047800 3.810000 1.950000
19.063200 3.920000 1.980000
19.078600 3.990000 2.000000
19.094000 4.150000 2.040000
19.109400 4.040000 2.010000
19.124800 4.040000 2.010000
19.140200 4.000000 2.000000
19.155600 3.870000 1.970000
19.171000 3.750000 1.940000
19.186400 4.070000 2.020000
19.201800 3.870000 1.970000
19.217200 3.920000 1.980000
19.232600 3.950000 1.990000
19.248000 3.930000 1.980000
19.263400 3.920000 1.980000
19.278800 4.160000 2.040000
19.294200 3.670000 1.920000
19.309600 3.690000 1.920000
19.325000 3.840000 1.960000
19.340400 4.050000 2.010000
19.355800 3.810000 1.950000
19.371200 3.640000 1.910000
19.386600 4.010000 2.000000
19.402000 3.770000 1.940000
19.417400 3.830000 1.960000
19.432800 4.020000 2.000000
19.448200 4.230000 2.060000
19.463600 4.010000 2.000000
19.479000 3.830000 1.960000
19.494400 3.920000 1.980000
19.509800 3.870000 1.970000
19.525200 4.090000 2.020000
19.540600 4.240000 2.060000
19.556000 3.720000 1.930000
19.571400 3.910000 1.980000
19.586800 4.150000 2.040000
19.602200 4.030000 2.010000
19.617600 4.160000 2.040000
19.633000 3.970000 1.990000
19.648400 3.880000 1.970000
19.663800 3.990000 2.000000
19.679200 3.970000 1.990000
19.694600 4.000000 2.000000
19.710000 4.120000 2.030000
19.725400 4.130000 2.030000
19.740800 4.120000 2.030000
19.756200 4.130000 2.030000
19.771600 4.240000 2.060000
19.787000 4.360000 2.090000
19.802400 4.000000 2.000000
19.817800 4.150000 2.040000
19.833200 4.300000 2.070000
19.848600 4.110000 2.030000
19.864000 4.090000 2.020000
19.879400 4.130000 2.030000
19.894800 4.170000 2.040000
19.910200 4.530000 2.130000
19.925600 4.600000 2.150000
19.941000 4.320000 2.080000
19.956400 4.510000 2.120000
19.971800 4.500000 2.120000
19.987200 4.320000 2.080000
20.002600 4.690000 2.160000
20.018000 4.100000 2.020000
20.033400 3.960000 1.990000
20.048800 4.790000 2.190000
20.064200 4.250000 2.060000
20.079600 4.500000 2.120000
20.095000 4.870000 2.210000
20.110400 4.340000 2.080000
20.125800 4.400000 2.100000
20.141200 4.520000 2.130000
20.156600 4.630000 2.150000
20.172000 4.860000 2.210000
20.187400 4.840000 2.200000
20.202800 4.850000 2.200000
20.218200 4.640000 2.150000
20.233600 4.710000 2.170000
20.249000 4.640000 2.150000
20.264400 4.600000 2.140000
20.279800 5.070000 2.250000
20.295200 4.960000 2.230000
20.310600 4.700000 2.170000
20.326000 4.860000 2.210000
20.341400 5.260000 2.290000
20.356800 4.810000 2.190000
20.372200 5.160000 2.270000
20.387600 5.100000 2.260000
20.403000 5.350000 2.310000
20.418400 5.030000 2.240000
20.433800 5.210000 2.280000
20.449200 5.250000 2.290000
20.464600 4.940000 2.220000
20.480000 5.140000 2.270000
20.495400 4.850000 2.200000
20.510800 5.190000 2.280000
20.526200 5.360000 2.310000
20.541600 5.020000 2.240000
20.557000 4.940000 2.220000
20.572400 4.980000 2.230000
20.587800 4.970000 2.230000
20.603200 4.950000 2.230000
20.618600 4.810000 2.190000
20.634000 4.980000 2.230000
20.649400 4.840000 2.200000
20.664800 4.850000 2.200000
20.680200 4.860000 2.210000
20.695600 4.810000 2.190000
20.711000 4.460000 2.110000
20.726400 4.530000 2.130000
20.741800 4.970000 2.230000
20.757200 4.800000 2.190000
20.772600 5.070000 2.250000
20.788000 4.570000 2.140000
20.803400 4.260000 2.060000
20.818800 4.780000 2.190000
20.834200 4.370000 2.090000
20.849600 4.630000 2.150000
20.865000 4.540000 2.130000
20.880400 3.820000 1.950000
20.895800 4.310000 2.080000
20.911200 4.170000 2.040000
20.926600 4.410000 2.100000
20.942000 4.470000 2.110000
20.957400 4.090000 2.020000
20.972800 4.510000 2.120000
20.988200 4.280000 2.070000
21.003600 4.310000 2.080000
21.019000 4.260000 2.060000
21.034400 4.640000 2.150000
21.049800 4.350000 2.090000
21.065200 4.150000 2.040000
21.080600 4.330000 2.080000
21.096000 4.470000 2.110000
21.111400 4.380000 2.090000
21.126800 4.380000 2.090000
21.142200 4.610000 2.150000
21.157600 4.500000 2.120000
21.173000 4.700000 2.170000
21.188400 5.310000 2.300000
21.203800 5.490000 2.340000
21.219200 6.240000 2.500000
21.234600 7.220000 2.690000
21.250000 8.400000 2.900000
21.265400 9.440000 3.070000
21.280800 10.910000 3.300000
21.296200 12.140000 3.480000
21.311600 13.600000 3.690000
21.327000 14.230000 3.770000
21.342400 13.960000 3.740000
21.357800 12.020000 3.470000
21.373200 10.230000 3.200000
21.388600 8.750000 2.960000
21.404000 7.280000 2.700000
21.419400 5.970000 2.440000
21.434800 5.620000 2.370000
21.450200 4.890000 2.210000
21.465600 4.860000 2.200000
21.481000 5.330000 2.310000
21.496400 5.390000 2.320000
21.511800 5.260000 2.290000
21.527200 5.620000 2.370000
21.542600 6.040000 2.460000
21.558000 6.880000 2.620000
21.573400 7.550000 2.750000
21.588800 8.930000 2.990000
21.604200 10.490000 3.240000
21.619600 13.320000 3.650000
21.635000 17.480000 4.180000
21.650400 22.050000 4.700000
21.665800 27.010000 5.200000
21.681200 35.980000 6.000000
21.696600 42.880000 6.550000
21.712000 53.540000 7.320000
21.727400 57.020000 7.550000
21.742800 60.150000 7.760000
21.758200 57.020000 7.550000
21.773600 48.700000 6.980000
21.789000 37.970000 6.160000
21.804400 28.330000 5.320000
21.819800 20.160000 4.490000
21.835200 14.620000 3.820000
21.850600 11.020000 3.320000
21.866000 8.410000 2.900000
21.881400 7.290000 2.700000
21.896800 6.550000 2.560000
21.912200 5.770000 2.400000
21.927600 5.090000 2.260000
21.943000 5.280000 2.300000
21.958400 4.850000 2.200000
21.973800 5.010000 2.240000
21.989200 5.030000 2.240000
22.004600 4.500000 2.120000
22.020000 4.550000 2.130000
22.035400 4.740000 2.180000
22.050800 4.680000 2.160000
22.066200 4.390000 2.090000
22.081600 4.560000 2.130000
22.097000 4.630000 2.150000
22.112400 4.670000 2.160000
22.127800 4.620000 2.150000
22.143200 4.860000 2.210000
22.158600 4.930000 2.220000
22.174000 4.880000 2.210000
22.189400 5.330000 2.310000
22.204800 5.180000 2.270000
22.220200 5.880000 2.420000
22.235600 6.250000 2.500000
22.251000 6.730000 2.590000
22.266400 7.320000 2.710000
22.281800 8.370000 2.890000
22.297200 10.160000 3.190000
22.312600 12.580000 3.550000
22.328000 15.380000 3.920000
22.343400 20.340000 4.510000
22.358800 27.850000 5.280000
22.374200 36.100000 6.010000
22.389600 50.110000 7.080000
22.405000 61.850000 7.860000
22.420400 75.780000 8.700000
22.435800 88.040000 9.380000
22.451200 98.140000 9.910000
22.466600 100.000000 10.000000
22.482000 92.910000 9.640000
22.497400 77.900000 8.830000
22.512800 59.390000 7.710000
22.528200 41.430000 6.440000
22.543600 27.360000 5.230000
22.559000 18.960000 4.350000
22.574400 14.040000 3.750000
22.589800 10.670000 3.270000
22.605200 8.900000 2.980000
22.620600 7.220000 2.690000
22.636000 7.160000 2.680000
22.651400 6.660000 2.580000
22.666800 6.480000 2.550000
22.682200 6.010000 2.450000
22.697600 5.770000 2.400000
22.713000 4.990000 2.230000
22.728400 5.040000 2.250000
22.743800 4.800000 2.190000
22.759200 4.650000 2.160000
22.774600 4.500000 2.120000
22.790000 3.870000 1.970000
22.805400 4.350000 2.080000
22.820800 4.220000 2.050000
22.836200 4.040000 2.010000
22.851600 4.010000 2.000000
22.867000 3.900000 1.970000
22.882400 3.790000 1.950000
22.897800 3.540000 1.880000
22.913200 4.010000 2.000000
22.928600 3.850000 1.960000
22.944000 4.040000 2.010000
22.959400 3.890000 1.970000
22.974800 3.690000 1.920000
22.990200 3.680000 1.920000
23.005600 3.690000 1.920000
23.021000 3.570000 1.890000
23.036400 3.470000 1.860000
23.051800 3.630000 1.900000
23.067200 3.560000 1.890000
23.082600 3.570000 1.890000
23.098000 3.550000 1.880000
23.113400 3.460000 1.860000
23.128800 3.370000 1.840000
23.144200 3.640000 1.910000
23.159600 3.430000 1.850000
23.175000 3.690000 1.920000
23.190400 3.450000 1.860000
23.205800 3.590000 1.890000
23.221200 3.470000 1.860000
23.236600 3.350000 1.830000
23.252000 3.650000 1.910000
23.267400 3.450000 1.860000
23.282800 3.960000 1.990000
23.298200 3.530000 1.880000
23.313600 3.310000 1.820000
23.329000 3.450000 1.860000
23.344400 3.500000 1.870000
23.359800 3.640000 1.910000
23.375200 3.480000 1.870000
23.390600 3.550000 1.880000
23.406000 3.600000 1.900000
23.421400 3.560000 1.890000
23.436800 3.640000 1.910000
23.452200 3.580000 1.890000
23.467600 3.380000 1.840000
23.483000 3.620000 1.900000
23.498400 3.640000 1.910000
23.513800 3.590000 1.890000
23.529200 3.720000 1.930000
23.544600 3.860000 1.960000
23.560000 3.860000 1.960000
23.575400 4.000000 2.000000
23.590800 4.150000 2.040000
23.606200 4.240000 2.060000
23.621600 4.940000 2.220000
23.637000 5.270000 2.300000
23.652400 6.230000 2.500000
23.667800 7.230000 2.690000
23.683200 8.530000 2.920000
23.698600 10.270000 3.210000
23.714000 12.650000 3.560000
23.729400 14.850000 3.850000
23.744800 16.960000 4.120000
23.760200 18.000000 4.240000
23.775600 19.370000 4.400000
23.791000 17.990000 4.240000
23.806400 16.380000 4.050000
23.821800 12.960000 3.600000
23.837200 10.500000 3.240000
23.852600 7.390000 2.720000
23.868000 5.800000 2.410000
23.883400 4.880000 2.210000
23.898800 4.280000 2.070000
23.914200 4.020000 2.010000
23.929600 3.580000 1.890000
23.945000 3.790000 1.950000
23.960400 3.500000 1.870000
23.975800 3.520000 1.880000
23.991200 3.630000 1.910000
24.006600 3.250000 1.800000
24.022000 3.410000 1.850000
24.037400 3.190000 1.790000
24.052800 3.540000 1.880000
24.068200 3.380000 1.840000
24.083600 3.840000 1.960000
24.099000 3.440000 1.850000
24.114400 3.630000 1.900000
24.129800 3.410000 1.850000
24.145200 3.450000 1.860000
24.160600 3.600000 1.900000
24.176000 3.760000 1.940000
24.191400 4.120000 2.030000
24.206800 4.310000 2.080000
24.222200 4.320000 2.080000
24.237600 5.380000 2.320000
24.253000 5.580000 2.360000
24.268400 6.120000 2.470000
24.283800 7.410000 2.720000
24.299200 8.210000 2.860000
24.314600 8.990000 3.000000
24.330000 9.150000 3.020000
24.345400 8.890000 2.980000
24.360800 8.300000 2.880000
24.376200 7.390000 2.720000
24.391600 6.160000 2.480000
24.407000 5.310000 2.300000
24.422400 4.490000 2.120000
24.437800 3.990000 2.000000
24.453200 3.740000 1.930000
24.468600 3.570000 1.890000
24.484000 3.110000 1.760000
24.499400 3.390000 1.840000
24.514800 3.330000 1.830000
24.530200 3.280000 1.810000
24.545600 3.230000 1.800000
24.561000 3.170000 1.780000
24.576400 3.340000 1.830000
24.591800 3.000000 1.730000
24.607200 2.970000 1.720000
24.622600 3.090000 1.760000
24.638000 3.290000 1.810000
24.653400 2.730000 1.650000
24.668800 2.820000 1.680000
24.684200 3.070000 1.750000
24.699600 2.930000 1.710000
24.715000 3.020000 1.740000
24.730400 2.940000 1.710000
24.745800 2.820000 1.680000
24.761200 3.050000 1.750000
24.776600 3.060000 1.750000
24.792000 3.100000 1.760000
24.807400 2.980000 1.730000
24.822800 3.180000 1.780000
24.838200 3.000000 1.730000
24.853600 3.010000 1.730000
24.869000 3.240000 1.800000
24.884400 2.910000 1.710000
24.899800 3.020000 1.740000
24.915200 3.000000 1.730000
24.930600 2.980000 1.730000
24.946000 3.000000 1.730000
24.961400 3.000000 1.730000
24.976800 3.050000 1.750000
24.992200 2.940000 1.720000
25.007600 3.090000 1.760000
25.023000 2.800000 1.670000
25.038400 2.730000 1.650000
25.053800 2.870000 1.690000
25.069200 3.090000 1.760000
25.084600 2.980000 1.730000
25.100000 2.550000 1.600000
25.115400 3.060000 1.750000
25.130800 3.040000 1.740000
25.146200 3.010000 1.730000
25.161600 2.990000 1.730000
25.177000 2.840000 1.690000
25.192400 2.830000 1.680000
25.207800 3.050000 1.750000
25.223200 2.990000 1.730000
25.238600 2.800000 1.670000
25.254000 3.070000 1.750000
25.269400 2.800000 1.670000
25.284800 3.000000 1.730000
25.300200 2.890000 1.700000
25.315600 2.660000 1.630000
25.331000 2.770000 1.660000
25.346400 2.900000 1.700000
25.361800 2.840000 1.680000
25.377200 3.000000 1.730000
25.392600 2.850000 1.690000
25.408000 2.940000 1.710000
25.423400 2.770000 1.670000
25.438800 2.960000 1.720000
25.454200 2.740000 1.660000
25.469600 2.990000 1.730000
25.485000 3.180000 1.780000
25.500400 3.090000 1.760000
25.515800 3.150000 1.770000
25.531200 3.070000 1.750000
25.546600 2.980000 1.730000
25.562000 3.130000 1.770000
25.577400 3.060000 1.750000
25.592800 3.150000 1.780000
25.608200 3.040000 1.740000
25.623600 3.180000 1.780000
25.639000 3.610000 1.900000
25.654400 3.910000 1.980000
25.669800 4.330000 2.080000
25.685200 4.870000 2.210000
25.700600 5.540000 2.350000
25.716000 5.990000 2.450000
25.731400 6.820000 2.610000
25.746800 7.040000 2.650000
25.762200 7.330000 2.710000
25.777600 6.820000 2.610000
25.793000 7.080000 2.660000
25.808400 6.240000 2.500000
25.823800 5.340000 2.310000
25.839200 4.530000 2.130000
25.854600 3.890000 1.970000
25.870000 3.380000 1.840000
25.885400 3.220000 1.790000
25.900800 2.980000 1.730000
25.916200 2.930000 1.710000
25.931600 3.240000 1.800000
25.947000 2.830000 1.680000
25.962400 3.060000 1.750000
25.977800 2.820000 1.680000
25.993200 2.970000 1.720000
26.008600 2.950000 1.720000
26.024000 2.750000 1.660000
26.039400 2.920000 1.710000
26.054800 3.110000 1.760000
26.070200 2.800000 1.670000
26.085600 2.840000 1.680000
26.101000 2.940000 1.720000
26.116400 2.870000 1.690000
26.131800 2.920000 1.710000
26.147200 2.680000 1.640000
26.162600 2.860000 1.690000
26.178000 2.700000 1.640000
26.193400 2.800000 1.670000
26.208800 2.830000 1.680000
26.224200 2.810000 1.680000
26.239600 2.980000 1.730000
26.255000 2.810000 1.680000
26.270400 2.570000 1.600000
26.285800 2.830000 1.680000
26.301200 2.590000 1.610000
26.316600 3.000000 1.730000
26.332000 2.720000 1.650000
26.347400 2.840000 1.680000
26.362800 2.650000 1.630000
26.378200 2.860000 1.690000
26.393600 2.950000 1.720000
26.409000 2.800000 1.670000
26.424400 2.970000 1.720000
26.439800 2.860000 1.690000
26.455200 3.090000 1.760000
26.470600 3.190000 1.790000
26.486000 3.050000 1.750000
26.501400 3.350000 1.830000
26.516800 3.760000 1.940000
26.532200 4.070000 2.020000
26.547600 3.960000 1.990000
26.563000 4.360000 2.090000
26.578400 3.870000 1.970000
26.593800 3.770000 1.940000
26.609200 3.340000 1.830000
26.624600 3.320000 1.820000
26.640000 3.060000 1.750000
26.655400 2.930000 1.710000
26.670800 3.050000 1.750000
26.686200 2.800000 1.670000
26.701600 2.960000 1.720000
26.717000 2.750000 1.660000
26.732400 2.900000 1.700000
26.747800 3.000000 1.730000
26.763200 3.150000 1.770000
26.778600 2.920000 1.710000
26.794000 2.900000 1.700000
26.809400 3.140000 1.770000
26.824800 2.790000 1.670000
26.840200 2.890000 1.700000
26.855600 2.840000 1.690000
26.871000 2.740000 1.660000
26.886400 2.780000 1.670000
26.901800 2.710000 1.650000
26.917200 2.660000 1.630000
26.932600 3.130000 1.770000
26.948000 2.710000 1.650000
26.963400 2.880000 1.700000
26.978800 3.020000 1.740000
26.994200 2.820000 1.680000
27.009600 2.810000 1.680000
27.025000 2.750000 1.660000
27.040400 2.510000 1.580000
27.055800 2.800000 1.670000
27.071200 2.770000 1.660000
27.086600 2.750000 1.660000
27.102000 3.050000 1.750000
27.117400 2.620000 1.620000
27.132800 2.580000 1.610000
27.148200 2.680000 1.640000
27.163600 2.990000 1.730000
27.179000 3.000000 1.730000
27.194400 2.940000 1.710000
27.209800 2.920000 1.710000
27.225200 2.750000 1.660000
27.240600 2.890000 1.700000
27.256000 3.120000 1.770000
27.271400 3.120000 1.770000
27.286800 3.310000 1.820000
27.302200 3.250000 1.800000
27.317600 3.620000 1.900000
27.333000 4.010000 2.000000
27.348400 4.180000 2.040000
27.363800 4.330000 2.080000
27.379200 5.340000 2.310000
27.394600 6.250000 2.500000
27.410000 7.610000 2.760000
27.425400 9.240000 3.040000
27.440800 10.860000 3.300000
27.456200 13.680000 3.700000
27.471600 16.560000 4.070000
27.487000 19.810000 4.450000
27.502400 22.310000 4.720000
27.517800 22.960000 4.790000
27.533200 23.350000 4.830000
27.548600 20.740000 4.550000
27.564000 17.000000 4.120000
27.579400 13.060000 3.610000
27.594800 9.690000 3.110000
27.610200 7.000000 2.650000
27.625600 5.320000 2.310000
27.641000 4.550000 2.130000
27.656400 3.650000 1.910000
27.671800 3.480000 1.870000
27.687200 3.380000 1.840000
27.702600 3.170000 1.780000
27.718000 2.860000 1.690000
27.733400 2.990000 1.730000
27.748800 3.080000 1.760000
27.764200 3.060000 1.750000
27.779600 2.920000 1.710000
27.795000 3.050000 1.750000
27.810400 2.880000 1.700000
27.825800 2.870000 1.690000
27.841200 2.890000 1.700000
27.856600 3.040000 1.740000
27.872000 2.970000 1.720000
27.887400 2.940000 1.720000
27.902800 2.720000 1.650000
27.918200 2.940000 1.720000
27.933600 2.900000 1.700000
27.949000 3.280000 1.810000
27.964400 3.410000 1.850000
27.979800 3.520000 1.880000
27.995200 3.830000 1.960000
28.010600 3.590000 1.900000
28.026000 3.590000 1.890000
28.041400 3.280000 1.810000
28.056800 3.180000 1.780000
28.072200 3.140000 1.770000
28.087600 3.070000 1.750000
28.103000 2.910000 1.710000
28.118400 2.630000 1.620000
28.133800 2.760000 1.660000
28.149200 2.690000 1.640000
28.164600 2.820000 1.680000
28.180000 2.560000 1.600000
28.195400 2.790000 1.670000
28.210800 2.440000 1.560000
28.226200 2.590000 1.610000
28.241600 2.760000 1.660000
28.257000 2.430000 1.560000
28.272400 2.760000 1.660000
28.287800 2.850000 1.690000
28.303200 2.510000 1.580000
28.318600 2.690000 1.640000
28.334000 2.620000 1.620000
28.349400 2.380000 1.540000
28.364800 2.640000 1.620000
28.380200 2.730000 1.650000
28.395600 2.650000 1.630000
28.411000 2.880000 1.700000
28.426400 2.750000 1.660000
28.441800 2.620000 1.620000
28.457200 2.810000 1.680000
28.472600 2.440000 1.560000
28.488000 2.620000 1.620000
28.503400 2.680000 1.640000
28.518800 2.750000 1.660000
28.534200 2.790000 1.670000
28.549600 2.760000 1.660000
28.565000 2.700000 1.640000
28.580400 2.590000 1.610000
28.595800 2.920000 1.710000
28.611200 2.500000 1.580000
28.626600 2.550000 1.600000
28.642000 2.760000 1.660000
28.657400 2.670000 1.630000
28.672800 2.620000 1.620000
28.688200 2.820000 1.680000
28.703600 2.620000 1.620000
28.719000 2.610000 1.620000
28.734400 2.690000 1.640000
28.749800 2.630000 1.620000
28.765200 2.720000 1.650000
28.780600 2.790000 1.670000
28.796000 2.740000 1.650000
28.811400 2.920000 1.710000
28.826800 2.800000 1.670000
28.842200 2.890000 1.700000
28.857600 2.990000 1.730000
28.873000 3.060000 1.750000
28.888400 3.250000 1.800000
28.903800 3.270000 1.810000
28.919200 3.540000 1.880000
28.934600 3.760000 1.940000
28.950000 4.170000 2.040000
28.965400 3.720000 1.930000
28.980800 3.740000 1.930000
28.996200 3.880000 1.970000
29.011600 3.680000 1.920000
29.027000 3.660000 1.910000
29.042400 3.430000 1.850000
29.057800 3.630000 1.900000
29.073200 3.800000 1.950000
29.088600 4.230000 2.060000
29.104000 4.730000 2.170000
29.119400 4.990000 2.230000
29.134800 6.040000 2.460000
29.150200 6.840000 2.610000
29.165600 8.350000 2.890000
29.181000 10.350000 3.220000
29.196400 12.560000 3.540000
29.211800 16.130000 4.020000
29.227200 18.390000 4.290000
29.242600 21.370000 4.620000
29.258000 25.150000 5.010000
29.273400 26.340000 5.130000
29.288800 25.380000 5.040000
29.304200 23.100000 4.810000
29.319600 19.230000 4.390000
29.335000 15.250000 3.900000
29.350400 11.740000 3.430000
29.365800 9.120000 3.020000
29.381200 7.450000 2.730000
29.396600 6.510000 2.550000
29.412000 6.060000 2.460000
29.427400 6.350000 2.520000
29.442800 6.740000 2.600000
29.458200 7.460000 2.730000
29.473600 8.590000 2.930000
29.489000 10.810000 3.290000
29.504400 13.010000 3.610000
29.519800 15.780000 3.970000
29.535200 19.590000 4.430000
29.550600 21.220000 4.610000
29.566000 23.830000 4.880000
29.581400 24.860000 4.990000
29.596800 24.760000 4.980000
29.612200 22.630000 4.760000
29.627600 18.770000 4.330000
29.643000 14.630000 3.830000
29.658400 11.440000 3.380000
29.673800 8.990000 3.000000
29.689200 7.540000 2.750000
29.704600 6.300000 2.510000
29.720000 6.100000 2.470000
29.735400 6.820000 2.610000
29.750800 7.360000 2.710000
29.766200 7.740000 2.780000
29.781600 8.750000 2.960000
29.797000 9.100000 3.020000
29.812400 9.750000 3.120000
29.827800 9.820000 3.130000
29.843200 9.980000 3.160000
29.858600 8.740000 2.960000
29.874000 7.300000 2.700000
29.889400 6.000000 2.450000
29.904800 4.690000 2.170000
29.920200 4.000000 2.000000
29.935600 3.660000 1.910000
29.951000 3.380000 1.840000
29.966400 2.960000 1.720000
29.981800 3.020000 1.740000
29.997200 2.840000 1.680000
30.012600 2.880000 1.700000
30.028000 2.670000 1.630000
30.043400 2.640000 1.620000
30.058800 2.640000 1.630000
30.074200 2.490000 1.580000
30.089600 2.600000 1.610000
30.105000 2.510000 1.580000
30.120400 2.530000 1.590000
30.135800 2.510000 1.590000
30.151200 2.610000 1.620000
30.166600 2.480000 1.570000
30.182000 2.710000 1.650000
30.197400 2.490000 1.580000
30.212800 2.460000 1.570000
30.228200 2.310000 1.520000
30.243600 2.350000 1.530000
30.259000 2.300000 1.520000
30.274400 2.320000 1.520000
30.289800 2.430000 1.560000
30.305200 2.310000 1.520000
30.320600 2.730000 1.650000
30.336000 2.080000 1.440000
30.351400 2.440000 1.560000
30.366800 2.250000 1.500000
30.382200 2.540000 1.590000
30.397600 2.290000 1.510000
30.413000 2.210000 1.490000
30.428400 2.580000 1.610000
30.443800 2.520000 1.590000
30.459200 2.680000 1.640000
30.474600 2.330000 1.530000
30.490000 2.590000 1.610000
30.505400 2.650000 1.630000
30.520800 2.360000 1.540000
30.536200 2.290000 1.510000
30.551600 2.280000 1.510000
30.567000 2.340000 1.530000
30.582400 2.340000 1.530000
30.597800 2.290000 1.510000
30.613200 2.360000 1.540000
30.628600 2.170000 1.470000
30.644000 2.530000 1.590000
30.659400 2.330000 1.530000
30.674800 2.540000 1.600000
30.690200 2.300000 1.520000
30.705600 2.520000 1.590000
30.721000 2.050000 1.430000
30.736400 2.300000 1.520000
30.751800 2.450000 1.560000
30.767200 2.440000 1.560000
30.782600 2.320000 1.520000
30.798000 2.310000 1.520000
30.813400 2.180000 1.480000
30.828800 2.190000 1.480000
30.844200 2.190000 1.480000
30.859600 2.330000 1.530000
30.875000 2.450000 1.570000
30.890400 2.260000 1.500000
30.905800 2.400000 1.550000
30.921200 2.220000 1.490000
30.936600 2.210000 1.490000
30.952000 2.230000 1.490000
30.967400 2.290000 1.510000
30.982800 2.290000 1.510000
30.998200 2.260000 1.500000
31.013600 2.170000 1.470000
31.029000 2.360000 1.540000
31.044400 2.340000 1.530000
31.059800 2.190000 1.480000
31.075200 2.260000 1.500000
31.090600 2.090000 1.440000
31.106000 2.300000 1.520000
31.121400 2.260000 1.500000
31.136800 2.290000 1.510000
31.152200 2.270000 1.510000
31.167600 2.180000 1.480000
31.183000 2.200000 1.480000
31.198400 2.040000 1.430000
31.213800 2.260000 1.500000
31.229200 2.340000 1.530000
31.244600 2.450000 1.560000
31.260000 2.270000 1.510000
31.275400 2.420000 1.560000
31.290800 2.290000 1.510000
31.306200 2.200000 1.480000
31.321600 2.280000 1.510000
31.337000 2.200000 1.480000
31.352400 2.280000 1.510000
31.367800 2.370000 1.540000
31.383200 2.130000 1.460000
31.398600 2.150000 1.470000
31.414000 2.120000 1.460000
31.429400 2.310000 1.520000
31.444800 2.120000 1.460000
31.460200 2.290000 1.510000
31.475600 2.160000 1.470000
31.491000 2.060000 1.430000
31.506400 2.300000 1.520000
31.521800 2.320000 1.520000
31.537200 2.320000 1.520000
31.552600 2.240000 1.500000
31.568000 2.200000 1.480000
31.583400 2.450000 1.560000
31.598800 2.420000 1.560000
31.614200 2.230000 1.490000
31.629600 2.340000 1.530000
31.645000 2.260000 1.500000
31.660400 2.320000 1.520000
31.675800 2.190000 1.480000
31.691200 2.320000 1.520000
31.706600 2.320000 1.520000
31.722000 2.150000 1.470000
31.737400 2.470000 1.570000
31.752800 2.330000 1.520000
31.768200 2.330000 1.530000
31.783600 2.210000 1.490000
31.799000 2.360000 1.540000
31.814400 2.530000 1.590000
31.829800 2.450000 1.570000
31.845200 2.530000 1.590000
31.860600 2.300000 1.520000
31.876000 2.320000 1.520000
31.891400 2.260000 1.500000
31.906800 2.360000 1.540000
31.922200 2.170000 1.470000
31.937600 2.340000 1.530000
31.953000 2.320000 1.520000
31.968400 2.270000 1.510000
31.983800 2.280000 1.510000
31.999200 2.480000 1.580000
32.014600 2.490000 1.580000
32.030000 2.310000 1.520000
32.045400 2.580000 1.610000
32.060800 2.620000 1.620000
32.076200 2.720000 1.650000
32.091600 2.560000 1.600000
32.107000 2.820000 1.680000
32.122400 2.840000 1.680000
32.137800 3.070000 1.750000
32.153200 2.960000 1.720000
32.168600 2.850000 1.690000
32.184000 2.930000 1.710000
32.199400 2.680000 1.640000
32.214800 2.810000 1.680000
32.230200 2.660000 1.630000
32.245600 2.390000 1.550000
32.261000 2.540000 1.590000
32.276400 2.380000 1.540000
32.291800 2.480000 1.580000
32.307200 2.520000 1.590000
32.322600 2.290000 1.510000
32.338000 2.510000 1.590000
32.353400 2.260000 1.500000
32.368800 2.510000 1.580000
32.384200 2.510000 1.580000
32.399600 2.400000 1.550000
32.415000 2.380000 1.540000
32.430400 2.570000 1.600000
32.445800 2.290000 1.510000
32.461200 2.580000 1.600000
32.476600 2.500000 1.580000
32.492000 2.660000 1.630000
32.507400 2.760000 1.660000
32.522800 2.850000 1.690000
32.538200 3.000000 1.730000
32.553600 2.920000 1.710000
32.569000 3.450000 1.860000
32.584400 3.430000 1.850000
32.599800 3.620000 1.900000
32.615200 4.250000 2.060000
32.630600 4.800000 2.190000
32.646000 5.230000 2.290000
32.661400 5.660000 2.380000
32.676800 6.740000 2.600000
32.692200 7.500000 2.740000
32.707600 7.920000 2.810000
32.723000 8.710000 2.950000
32.738400 8.770000 2.960000
32.753800 9.090000 3.020000
32.769200 9.140000 3.020000
32.784600 9.880000 3.140000
32.800000 10.650000 3.260000
32.815400 11.990000 3.460000
32.830800 14.980000 3.870000
32.846200 18.150000 4.260000
32.861600 22.610000 4.760000
32.877000 28.710000 5.360000
32.892400 34.440000 5.870000
32.907800 39.850000 6.310000
32.923200 44.270000 6.650000
32.938600 46.840000 6.840000
32.954000 46.050000 6.790000
32.969400 41.310000 6.430000
32.984800 32.750000 5.720000
33.000200 25.050000 5.000000
33.015600 18.410000 4.290000
33.031000 13.790000 3.710000
33.046400 10.070000 3.170000
33.061800 7.850000 2.800000
33.077200 6.630000 2.570000
33.092600 5.980000 2.450000
33.108000 5.230000 2.290000
33.123400 4.580000 2.140000
33.138800 4.160000 2.040000
33.154200 3.520000 1.870000
33.169600 3.210000 1.790000
33.185000 2.930000 1.710000
33.200400 2.800000 1.670000
33.215800 2.700000 1.640000
33.231200 2.620000 1.620000
33.246600 2.400000 1.550000
33.262000 2.490000 1.580000
33.277400 2.490000 1.580000
33.292800 2.510000 1.580000
33.308200 2.530000 1.590000
33.323600 2.260000 1.500000
33.339000 2.400000 1.550000
33.354400 2.530000 1.590000
33.369800 2.700000 1.640000
33.385200 2.350000 1.530000
33.400600 2.390000 1.540000
33.416000 2.380000 1.540000
33.431400 2.320000 1.520000
33.446800 2.350000 1.530000
33.462200 2.280000 1.510000
33.477600 2.300000 1.520000
33.493000 2.210000 1.490000
33.508400 2.410000 1.550000
33.523800 2.440000 1.560000
33.539200 2.460000 1.570000
33.554600 2.380000 1.540000
33.570000 2.250000 1.500000
33.585400 2.690000 1.640000
33.600800 2.590000 1.610000
33.616200 2.920000 1.710000
33.631600 2.780000 1.670000
33.647000 2.730000 1.650000
33.662400 2.600000 1.610000
33.677800 2.450000 1.570000
33.693200 2.520000 1.590000
33.708600 2.330000 1.530000
33.724000 2.330000 1.530000
33.739400 2.120000 1.450000
33.754800 2.280000 1.510000
33.770200 2.200000 1.480000
33.785600 2.120000 1.460000
33.801000 1.970000 1.400000
33.816400 2.160000 1.470000
33.831800 2.110000 1.450000
33.847200 2.300000 1.520000
33.862600 2.130000 1.460000
33.878000 2.020000 1.420000
33.893400 1.980000 1.410000
33.908800 1.930000 1.390000
33.924200 2.180000 1.480000
33.939600 2.010000 1.420000
33.955000 2.240000 1.500000
33.970400 1.920000 1.380000
33.985800 2.140000 1.460000
34.001200 2.200000 1.480000
34.016600 2.100000 1.450000
34.032000 1.990000 1.410000
34.047400 2.190000 1.480000
34.062800 2.080000 1.440000
34.078200 2.060000 1.440000
34.093600 2.040000 1.430000
34.109000 2.170000 1.470000
34.124400 2.070000 1.440000
34.139800 1.980000 1.410000
34.155200 2.170000 1.470000
34.170600 2.120000 1.460000
34.186000 1.960000 1.400000
34.201400 2.050000 1.430000
34.216800 2.050000 1.430000
34.232200 2.180000 1.480000
34.247600 2.160000 1.470000
34.263000 2.260000 1.500000
34.278400 2.090000 1.450000
34.293800 2.090000 1.450000
34.309200 2.170000 1.470000
34.324600 2.070000 1.440000
34.340000 1.860000 1.360000
34.355400 2.090000 1.440000
34.370800 2.190000 1.480000
34.386200 2.060000 1.430000
34.401600 2.070000 1.440000
34.417000 2.070000 1.440000
34.432400 2.070000 1.440000
34.447800 1.940000 1.390000
34.463200 2.100000 1.450000
34.478600 2.000000 1.410000
34.494000 1.980000 1.410000
34.509400 2.020000 1.420000
34.524800 2.170000 1.470000
34.540200 2.050000 1.430000
34.555600 1.850000 1.360000
34.571000 2.060000 1.430000
34.586400 1.880000 1.370000
34.601800 2.050000 1.430000
34.617200 2.030000 1.430000
34.632600 1.810000 1.350000
34.648000 1.840000 1.360000
34.663400 1.940000 1.390000
34.678800 2.020000 1.420000
34.694200 2.130000 1.460000
34.709600 1.960000 1.400000
34.725000 2.090000 1.450000
34.740400 2.050000 1.430000
34.755800 2.110000 1.450000
34.771200 1.930000 1.390000
34.786600 1.820000 1.350000
34.802000 1.990000 1.410000
34.817400 1.900000 1.380000
34.832800 1.880000 1.370000
34.848200 1.860000 1.370000
34.863600 1.850000 1.360000
34.879000 2.000000 1.410000
34.894400 1.940000 1.390000
34.909800 1.960000 1.400000
34.925200 2.020000 1.420000
34.940600 2.000000 1.410000
34.956000 1.950000 1.400000
34.971400 1.900000 1.380000
34.986800 2.090000 1.450000
35.002200 1.950000 1.390000
35.017600 2.160000 1.470000
35.033000 2.160000 1.470000
35.048400 2.010000 1.420000
35.063800 2.020000 1.420000
35.079200 2.060000 1.440000
35.094600 1.870000 1.370000
35.110000 2.020000 1.420000
35.125400 2.090000 1.440000
35.140800 2.140000 1.460000
35.156200 2.030000 1.430000
35.171600 2.080000 1.440000
35.187000 2.080000 1.440000
35.202400 2.090000 1.440000
35.217800 2.210000 1.490000
35.233200 2.210000 1.490000
35.248600 2.230000 1.490000
35.264000 2.280000 1.510000
35.279400 2.190000 1.480000
35.294800 2.430000 1.560000
35.310200 2.280000 1.510000
35.325600 2.570000 1.600000
35.341000 2.590000 1.610000
35.356400 2.560000 1.600000
35.371800 2.800000 1.670000
35.387200 2.560000 1.600000
35.402600 2.590000 1.610000
35.418000 2.550000 1.600000
35.433400 2.620000 1.620000
35.448800 3.110000 1.760000
35.464200 3.220000 1.790000
35.479600 3.500000 1.870000
35.495000 3.850000 1.960000
35.510400 4.320000 2.080000
35.525800 5.160000 2.270000
35.541200 6.190000 2.490000
35.556600 6.870000 2.620000
35.572000 8.110000 2.850000
35.587400 8.600000 2.930000
35.602800 9.160000 3.030000
35.618200 9.260000 3.040000
35.633600 7.940000 2.820000
35.649000 7.380000 2.720000
35.664400 5.750000 2.400000
35.679800 4.980000 2.230000
35.695200 4.130000 2.030000
35.710600 3.470000 1.860000
35.726000 3.030000 1.740000
35.741400 3.000000 1.730000
35.756800 3.010000 1.730000
35.772200 3.170000 1.780000
35.787600 3.110000 1.760000
35.803000 3.120000 1.770000
35.818400 3.270000 1.810000
35.833800 3.240000 1.800000
35.849200 3.300000 1.820000
35.864600 3.470000 1.860000
35.880000 3.420000 1.850000
35.895400 3.550000 1.880000
35.910800 3.560000 1.890000
35.926200 3.650000 1.910000
35.941600 3.520000 1.880000
35.957000 3.500000 1.870000
35.972400 3.490000 1.870000
35.987800 3.140000 1.770000
36.003200 2.690000 1.640000
36.018600 2.480000 1.580000
36.034000 2.410000 1.550000
36.049400 2.110000 1.450000
36.064800 2.160000 1.470000
36.080200 2.090000 1.440000
36.095600 1.990000 1.410000
36.111000 1.950000 1.400000
36.126400 2.010000 1.420000
36.141800 1.900000 1.380000
36.157200 1.820000 1.350000
36.172600 1.790000 1.340000
36.188000 1.970000 1.400000
36.203400 1.960000 1.400000
36.218800 1.910000 1.380000
36.234200 1.900000 1.380000
36.249600 1.800000 1.340000
36.265000 1.840000 1.360000
36.280400 1.820000 1.350000
36.295800 1.810000 1.350000
36.311200 1.920000 1.390000
36.326600 1.830000 1.350000
36.342000 1.910000 1.380000
36.357400 1.820000 1.350000
36.372800 1.900000 1.380000
36.388200 2.110000 1.450000
36.403600 2.000000 1.410000
36.419000 1.960000 1.400000
36.434400 1.880000 1.370000
36.449800 1.750000 1.320000
36.465200 2.060000 1.440000
36.480600 1.880000 1.370000
36.496000 2.100000 1.450000
36.511400 2.090000 1.440000
36.526800 2.200000 1.480000
36.542200 2.500000 1.580000
36.557600 2.560000 1.600000
36.573000 2.720000 1.650000
36.588400 3.000000 1.730000
36.603800 3.330000 1.820000
36.619200 3.730000 1.930000
36.634600 4.070000 2.020000
36.650000 4.410000 2.100000
36.665400 4.750000 2.180000
36.680800 4.910000 2.220000
36.696200 4.920000 2.220000
36.711600 4.640000 2.150000
36.727000 4.010000 2.000000
36.742400 3.610000 1.900000
36.757800 3.110000 1.760000
36.773200 2.900000 1.700000
36.788600 2.590000 1.610000
36.804000 2.360000 1.540000
36.819400 2.200000 1.480000
36.834800 2.280000 1.510000
36.850200 2.240000 1.500000
36.865600 2.330000 1.530000
36.881000 2.230000 1.490000
36.896400 2.190000 1.480000
36.911800 2.010000 1.420000
36.927200 2.250000 1.500000
36.942600 2.150000 1.470000
36.958000 1.980000 1.410000
36.973400 2.020000 1.420000
36.988800 2.120000 1.460000
37.004200 2.290000 1.510000
37.019600 2.290000 1.510000
37.035000 2.310000 1.520000
37.050400 2.490000 1.580000
37.065800 2.270000 1.510000
37.081200 2.180000 1.480000
37.096600 2.210000 1.490000
37.112000 2.060000 1.430000
37.127400 2.010000 1.420000
37.142800 1.830000 1.350000
37.158200 1.900000 1.380000
37.173600 1.790000 1.340000
37.189000 1.710000 1.310000
37.204400 1.920000 1.390000
37.219800 1.890000 1.370000
37.235200 1.930000 1.390000
37.250600 1.840000 1.350000
37.266000 1.710000 1.310000
37.281400 1.830000 1.350000
37.296800 1.700000 1.300000
37.312200 1.820000 1.350000
37.327600 1.820000 1.350000
37.343000 1.820000 1.350000
37.358400 1.860000 1.360000
37.373800 1.860000 1.360000
37.389200 1.780000 1.330000
37.404600 1.780000 1.340000
37.420000 1.830000 1.350000
37.435400 1.630000 1.280000
37.450800 1.820000 1.350000
37.466200 1.650000 1.280000
37.481600 1.840000 1.360000
37.497000 1.910000 1.380000
37.512400 1.980000 1.410000
37.527800 1.820000 1.350000
37.543200 1.780000 1.330000
37.558600 1.830000 1.350000
37.574000 1.790000 1.340000
37.589400 1.890000 1.380000
37.604800 1.870000 1.370000
37.620200 1.720000 1.310000
37.635600 1.670000 1.290000
37.651000 1.670000 1.290000
37.666400 1.640000 1.280000
37.681800 1.770000 1.330000
37.697200 1.730000 1.310000
37.712600 1.680000 1.300000
37.728000 1.830000 1.350000
37.743400 1.760000 1.330000
37.758800 1.850000 1.360000
37.774200 1.590000 1.260000
37.789600 1.810000 1.350000
37.805000 1.830000 1.350000
37.820400 1.770000 1.330000
37.835800 1.690000 1.300000
37.851200 1.960000 1.400000
37.866600 1.770000 1.330000
37.882000 1.860000 1.370000
37.897400 1.730000 1.310000
37.912800 1.760000 1.330000
37.928200 1.810000 1.350000
37.943600 1.730000 1.320000
37.959000 1.800000 1.340000
37.974400 1.950000 1.400000
37.989800 1.740000 1.320000
38.005200 1.890000 1.380000
38.020600 2.000000 1.420000
38.036000 1.940000 1.390000
38.051400 1.910000 1.380000
38.066800 1.930000 1.390000
38.082200 2.070000 1.440000
38.097600 1.940000 1.390000
38.113000 1.910000 1.380000
38.128400 1.730000 1.310000
38.143800 1.620000 1.270000
38.159200 1.690000 1.300000
38.174600 1.780000 1.330000
38.190000 1.730000 1.320000
38.205400 1.570000 1.250000
38.220800 1.640000 1.280000
38.236200 1.680000 1.300000
38.251600 1.800000 1.340000
38.267000 1.910000 1.380000
38.282400 1.800000 1.340000
38.297800 1.720000 1.310000
38.313200 1.790000 1.340000
38.328600 1.700000 1.310000
38.344000 1.800000 1.340000
38.359400 1.680000 1.300000
38.374800 1.750000 1.320000
38.390200 1.700000 1.300000
38.405600 1.780000 1.340000
38.421000 1.690000 1.300000
38.436400 1.800000 1.340000
38.451800 2.060000 1.440000
38.467200 1.770000 1.330000
38.482600 1.890000 1.380000
38.498000 1.990000 1.410000
38.513400 2.200000 1.480000
38.528800 2.120000 1.460000
38.544200 2.060000 1.440000
38.559600 2.250000 1.500000
38.575000 2.660000 1.630000
38.590400 2.730000 1.650000
38.605800 2.560000 1.600000
38.621200 2.820000 1.680000
38.636600 2.620000 1.620000
38.652000 2.840000 1.690000
38.667400 2.790000 1.670000
38.682800 3.150000 1.780000
38.698200 3.210000 1.790000
38.713600 3.200000 1.790000
38.729000 3.650000 1.910000
38.744400 3.480000 1.870000
38.759800 3.640000 1.910000
38.775200 3.620000 1.900000
38.790600 3.700000 1.920000
38.806000 3.200000 1.790000
38.821400 2.950000 1.720000
38.836800 2.390000 1.550000
38.852200 2.120000 1.460000
38.867600 2.090000 1.450000
38.883000 1.940000 1.390000
38.898400 1.750000 1.320000
38.913800 1.700000 1.300000
38.929200 1.920000 1.390000
38.944600 1.590000 1.260000
38.960000 1.680000 1.300000
38.975400 1.800000 1.340000
38.990800 1.810000 1.350000
39.006200 1.660000 1.290000
39.021600 1.760000 1.330000
39.037000 1.790000 1.340000
39.052400 1.780000 1.330000
39.067800 1.760000 1.330000
39.083200 1.650000 1.280000
39.098600 1.840000 1.360000
39.114000 1.690000 1.300000
39.129400 1.740000 1.320000
39.144800 1.760000 1.330000
39.160200 1.830000 1.350000
39.175600 1.650000 1.290000
39.191000 1.790000 1.340000
39.206400 1.620000 1.270000
39.221800 1.640000 1.280000
39.237200 1.680000 1.300000
39.252600 1.590000 1.260000
39.268000 1.590000 1.260000
39.283400 1.700000 1.300000
39.298800 1.620000 1.270000
39.314200 1.810000 1.350000
39.329600 1.770000 1.330000
39.345000 1.550000 1.250000
39.360400 1.680000 1.300000
39.375800 1.510000 1.230000
39.391200 1.520000 1.230000
39.406600 1.680000 1.300000
39.422000 1.740000 1.320000
39.437400 1.710000 1.310000
39.452800 1.700000 1.300000
39.468200 1.590000 1.260000
39.483600 1.650000 1.280000
39.499000 1.520000 1.230000
39.514400 1.850000 1.360000
39.529800 1.650000 1.280000
39.545200 1.590000 1.260000
39.560600 1.680000 1.300000
39.576000 1.640000 1.280000
39.591400 1.630000 1.280000
39.606800 1.690000 1.300000
39.622200 1.650000 1.280000
39.637600 1.550000 1.250000
39.653000 1.510000 1.230000
39.668400 1.600000 1.260000
39.683800 1.430000 1.200000
39.699200 1.620000 1.270000
39.714600 1.600000 1.270000
39.730000 1.670000 1.290000
39.745400 1.600000 1.270000
39.760800 1.620000 1.270000
39.776200 1.610000 1.270000
39.791600 1.430000 1.200000
39.807000 1.520000 1.230000
39.822400 1.530000 1.240000
39.837800 1.750000 1.320000
39.853200 1.790000 1.340000
39.868600 1.690000 1.300000
39.884000 1.720000 1.310000
39.899400 1.620000 1.270000
39.914800 1.610000 1.270000
39.930200 1.510000 1.230000
39.945600 1.670000 1.290000
39.961000 1.710000 1.310000
39.976400 1.610000 1.270000
39.991800 1.700000 1.310000
40.007200 1.700000 1.300000
40.022600 1.700000 1.310000
40.038000 1.570000 1.250000
40.053400 1.640000 1.280000
40.068800 1.690000 1.300000
40.084200 1.890000 1.380000
40.099600 1.740000 1.320000
40.115000 1.550000 1.240000
40.130400 1.750000 1.320000
40.145800 1.660000 1.290000
40.161200 1.970000 1.400000
40.176600 1.720000 1.310000
40.192000 1.920000 1.390000
40.207400 1.950000 1.400000
40.222800 2.000000 1.410000
40.238200 2.160000 1.470000
40.253600 2.220000 1.490000
40.269000 2.610000 1.620000
40.284400 2.740000 1.660000
40.299800 3.100000 1.760000
40.315200 3.220000 1.790000
40.330600 3.630000 1.910000
40.346000 3.840000 1.960000
40.361400 4.170000 2.040000
40.376800 4.350000 2.080000
40.392200 4.390000 2.090000
40.407600 4.080000 2.020000
40.423000 3.820000 1.950000
40.438400 3.430000 1.850000
40.453800 2.710000 1.650000
40.469200 2.380000 1.540000
40.484600 2.080000 1.440000
40.500000 2.090000 1.450000
40.515400 1.930000 1.390000
40.530800 1.860000 1.370000
40.546200 1.810000 1.340000
40.561600 1.780000 1.330000
40.577000 1.930000 1.390000
40.592400 1.800000 1.340000
40.607800 1.640000 1.280000
40.623200 1.870000 1.370000
40.638600 1.650000 1.280000
40.654000 1.740000 1.320000
40.669400 1.690000 1.300000
40.684800 1.720000 1.310000
40.700200 1.610000 1.270000
40.715600 1.690000 1.300000
40.731000 1.590000 1.260000
40.746400 1.560000 1.250000
40.761800 1.590000 1.260000
40.777200 1.620000 1.270000
40.792600 1.790000 1.340000
40.808000 1.620000 1.270000
40.823400 1.580000 1.260000
40.838800 1.660000 1.290000
40.854200 1.580000 1.260000
40.869600 1.730000 1.310000
40.885000 1.680000 1.300000
40.900400 1.700000 1.300000
40.915800 1.700000 1.300000
40.931200 1.630000 1.280000
40.946600 1.640000 1.280000
40.962000 1.570000 1.250000
40.977400 1.590000 1.260000
40.992800 1.660000 1.290000
41.008200 1.600000 1.260000
41.023600 1.770000 1.330000
41.039000 1.670000 1.290000
41.054400 1.630000 1.270000
41.069800 1.570000 1.250000
41.085200 1.570000 1.250000
41.100600 1.560000 1.250000
41.116000 1.920000 1.390000
41.131400 1.600000 1.260000
41.146800 1.640000 1.280000
41.162200 1.790000 1.340000
41.177600 1.570000 1.250000
41.193000 1.730000 1.310000
41.208400 1.680000 1.300000
41.223800 1.750000 1.320000
41.239200 1.670000 1.290000
41.254600 1.540000 1.240000
41.270000 1.610000 1.270000
41.285400 1.620000 1.270000
41.300800 1.710000 1.310000
41.316200 1.700000 1.300000
41.331600 1.630000 1.280000
41.347000 1.650000 1.290000
41.362400 1.600000 1.260000
41.377800 1.620000 1.270000
41.393200 1.730000 1.320000
41.408600 1.640000 1.280000
41.424000 1.630000 1.280000
41.439400 1.600000 1.270000
41.454800 1.610000 1.270000
41.470200 1.680000 1.300000
41.485600 1.590000 1.260000
41.501000 1.530000 1.240000
41.516400 1.710000 1.310000
41.531800 1.660000 1.290000
41.547200 1.710000 1.310000
41.562600 1.700000 1.300000
41.578000 1.840000 1.360000
41.593400 1.770000 1.330000
41.608800 1.880000 1.370000
41.624200 1.880000 1.370000
41.639600 1.730000 1.310000
41.655000 1.950000 1.390000
41.670400 2.040000 1.430000
41.685800 1.960000 1.400000
41.701200 2.260000 1.500000
41.716600 2.250000 1.500000
41.732000 2.440000 1.560000
41.747400 2.790000 1.670000
41.762800 2.830000 1.680000
41.778200 3.100000 1.760000
41.793600 3.220000 1.790000
41.809000 3.290000 1.810000
41.824400 3.420000 1.850000
41.839800 3.530000 1.880000
41.855200 3.400000 1.840000
41.870600 3.480000 1.870000
41.886000 3.340000 1.830000
41.901400 3.140000 1.770000
41.916800 3.190000 1.790000
41.932200 3.310000 1.820000
41.947600 3.450000 1.860000
41.963000 3.430000 1.850000
41.978400 3.130000 1.770000
41.993800 3.020000 1.740000
42.009200 2.780000 1.670000
42.024600 2.570000 1.600000
42.040000 2.070000 1.440000
42.055400 2.040000 1.430000
42.070800 1.790000 1.340000
42.086200 1.900000 1.380000
42.101600 1.680000 1.300000
42.117000 1.660000 1.290000
42.132400 1.680000 1.290000
42.147800 1.610000 1.270000
42.163200 1.590000 1.260000
42.178600 1.650000 1.280000
42.194000 1.640000 1.280000
42.209400 1.670000 1.290000
42.224800 1.500000 1.230000
42.240200 1.650000 1.290000
42.255600 1.630000 1.280000
42.271000 1.750000 1.320000
42.286400 1.690000 1.300000
42.301800 1.550000 1.240000
42.317200 1.560000 1.250000
42.332600 1.560000 1.250000
42.348000 1.640000 1.280000
42.363400 1.590000 1.260000
42.378800 1.730000 1.320000
42.394200 1.580000 1.260000
42.409600 1.650000 1.290000
42.425000 1.680000 1.300000
42.440400 1.540000 1.240000
42.455800 1.630000 1.280000
42.471200 1.440000 1.200000
42.486600 1.600000 1.270000
42.502000 1.520000 1.230000
42.517400 1.620000 1.270000
42.532800 1.620000 1.270000
42.548200 1.500000 1.220000
42.563600 1.560000 1.250000
42.579000 1.480000 1.220000
42.594400 1.610000 1.270000
42.609800 1.540000 1.240000
42.625200 1.570000 1.250000
42.640600 1.590000 1.260000
42.656000 1.640000 1.280000
42.671400 1.540000 1.240000
42.686800 1.520000 1.230000
42.702200 1.750000 1.320000
42.717600 1.660000 1.290000
42.733000 1.570000 1.250000
42.748400 1.700000 1.310000
42.763800 1.720000 1.310000
42.779200 1.580000 1.260000
42.794600 1.620000 1.270000
42.810000 1.730000 1.310000
42.825400 1.680000 1.300000
42.840800 1.590000 1.260000
42.856200 1.650000 1.290000
42.871600 1.710000 1.310000
42.887000 1.670000 1.290000
42.902400 1.620000 1.270000
42.917800 1.630000 1.280000
42.933200 1.570000 1.250000
42.948600 1.620000 1.270000
42.964000 1.720000 1.310000
42.979400 1.570000 1.250000
42.994800 1.630000 1.280000
43.010200 1.680000 1.300000
43.025600 1.760000 1.330000
43.041000 1.650000 1.290000
43.056400 1.710000 1.310000
43.071800 1.840000 1.360000
43.087200 1.840000 1.360000
43.102600 2.080000 1.440000
43.118000 2.020000 1.420000
43.133400 2.270000 1.510000
43.148800 2.310000 1.520000
43.164200 2.480000 1.580000
43.179600 2.810000 1.680000
43.195000 3.170000 1.780000
43.210400 3.490000 1.870000
43.225800 3.690000 1.920000
43.241200 4.310000 2.080000
43.256600 4.170000 2.040000
43.272000 4.330000 2.080000
43.287400 4.280000 2.070000
43.302800 4.230000 2.060000
43.318200 3.940000 1.990000
43.333600 3.260000 1.800000
43.349000 2.800000 1.670000
43.364400 2.740000 1.660000
43.379800 2.590000 1.610000
43.395200 2.290000 1.510000
43.410600 2.410000 1.550000
43.426000 2.500000 1.580000
43.441400 2.590000 1.610000
43.456800 2.840000 1.690000
43.472200 3.130000 1.770000
43.487600 3.770000 1.940000
43.503000 3.930000 1.980000
43.518400 4.450000 2.110000
43.533800 4.580000 2.140000
43.549200 5.050000 2.250000
43.564600 5.340000 2.310000
43.580000 5.310000 2.300000
43.595400 4.890000 2.210000
43.610800 5.070000 2.250000
43.626200 4.800000 2.190000
43.641600 4.990000 2.230000
43.657000 5.030000 2.240000
43.672400 5.210000 2.280000
43.687800 4.830000 2.200000
43.703200 4.820000 2.200000
43.718600 4.290000 2.070000
43.734000 4.080000 2.020000
43.749400 3.650000 1.910000
43.764800 2.960000 1.720000
43.780200 2.480000 1.570000
43.795600 2.150000 1.470000
43.811000 2.070000 1.440000
43.826400 2.000000 1.420000
43.841800 1.870000 1.370000
43.857200 1.860000 1.360000
43.872600 1.830000 1.350000
43.888000 1.780000 1.340000
43.903400 1.820000 1.350000
43.918800 1.800000 1.340000
43.934200 1.880000 1.370000
43.949600 1.830000 1.350000
43.965000 1.840000 1.360000
43.980400 2.010000 1.420000
43.995800 1.870000 1.370000
44.011200 1.960000 1.400000
44.026600 1.870000 1.370000
44.042000 2.000000 1.410000
44.057400 1.940000 1.390000
44.072800 1.990000 1.410000
44.088200 1.750000 1.320000
44.103600 1.830000 1.350000
44.119000 1.930000 1.390000
44.134400 2.070000 1.440000
44.149800 2.220000 1.490000
44.165200 2.150000 1.470000
44.180600 2.440000 1.560000
44.196000 2.590000 1.610000
44.211400 2.920000 1.710000
44.226800 3.400000 1.840000
44.242200 3.830000 1.960000
44.257600 4.210000 2.050000
44.273000 4.940000 2.220000
44.288400 5.720000 2.390000
44.303800 6.070000 2.460000
44.319200 6.370000 2.520000
44.334600 7.050000 2.650000
44.350000 7.110000 2.670000
44.365400 6.760000 2.600000
44.380800 5.970000 2.440000
44.396200 5.090000 2.260000
44.411600 4.250000 2.060000
44.427000 3.380000 1.840000
44.442400 2.900000 1.700000
44.457800 2.440000 1.560000
44.473200 2.170000 1.470000
44.488600 1.880000 1.370000
44.504000 1.880000 1.370000
44.519400 1.880000 1.370000
44.534800 1.850000 1.360000
44.550200 1.620000 1.270000
44.565600 1.680000 1.300000
44.581000 1.520000 1.230000
44.596400 1.610000 1.270000
44.611800 1.600000 1.270000
44.627200 1.500000 1.220000
44.642600 1.490000 1.220000
44.658000 1.610000 1.270000
44.673400 1.630000 1.280000
44.688800 1.660000 1.290000
44.704200 1.490000 1.220000
44.719600 1.520000 1.230000
44.735000 1.620000 1.270000
44.750400 1.510000 1.230000
44.765800 1.580000 1.260000
44.781200 1.540000 1.240000
44.796600 1.520000 1.230000
44.812000 1.460000 1.210000
44.827400 1.530000 1.240000
44.842800 1.490000 1.220000
44.858200 1.580000 1.260000
44.873600 1.580000 1.260000
44.889000 1.460000 1.210000
44.904400 1.620000 1.270000
44.919800 1.420000 1.190000
44.935200 1.560000 1.250000
44.950600 1.500000 1.230000
44.966000 1.470000 1.210000
44.981400 1.410000 1.190000
44.996800 1.490000 1.220000
45.012200 1.560000 1.250000
45.027600 1.510000 1.230000
45.043000 1.390000 1.180000
45.058400 1.390000 1.180000
45.073800 1.460000 1.210000
45.089200 1.380000 1.180000
45.104600 1.460000 1.210000
45.120000 1.400000 1.180000
45.135400 1.540000 1.240000
45.150800 1.540000 1.240000
45.166200 1.440000 1.200000
45.181600 1.380000 1.180000
45.197000 1.650000 1.280000
45.212400 1.470000 1.210000
45.227800 1.470000 1.210000
45.243200 1.500000 1.230000
45.258600 1.640000 1.280000
45.274000 1.570000 1.250000
45.289400 1.640000 1.280000
45.304800 1.670000 1.290000
45.320200 1.840000 1.360000
45.335600 1.670000 1.290000
45.351000 1.650000 1.280000
45.366400 1.770000 1.330000
45.381800 1.730000 1.320000
45.397200 1.700000 1.310000
45.412600 1.890000 1.380000
45.428000 1.710000 1.310000
45.443400 1.800000 1.340000
45.458800 1.970000 1.400000
45.474200 1.870000 1.370000
45.489600 1.880000 1.370000
45.505000 2.090000 1.450000
45.520400 2.050000 1.430000
45.535800 2.340000 1.530000
45.551200 2.380000 1.540000
45.566600 2.430000 1.560000
45.582000 2.430000 1.560000
45.597400 2.550000 1.600000
45.612800 2.580000 1.600000
45.628200 2.420000 1.560000
45.643600 2.500000 1.580000
45.659000 2.390000 1.550000
45.674400 2.390000 1.550000
45.689800 2.490000 1.580000
45.705200 2.390000 1.540000
45.720600 2.520000 1.590000
45.736000 2.580000 1.610000
45.751400 2.830000 1.680000
45.766800 2.740000 1.660000
45.782200 2.670000 1.630000
45.797600 2.780000 1.670000
45.813000 2.710000 1.650000
45.828400 2.560000 1.600000
45.843800 2.570000 1.600000
45.859200 2.300000 1.520000
45.874600 2.370000 1.540000
45.890000 2.320000 1.520000
45.905400 2.080000 1.440000
45.920800 1.910000 1.380000
45.936200 1.620000 1.270000
45.951600 1.730000 1.310000
45.967000 1.460000 1.210000
45.982400 1.500000 1.220000
45.997800 1.660000 1.290000
46.013200 1.620000 1.270000
46.028600 1.570000 1.250000
46.044000 1.580000 1.260000
46.059400 1.480000 1.220000
46.074800 1.540000 1.240000
46.090200 1.600000 1.260000
46.105600 1.630000 1.280000
46.121000 1.630000 1.280000
46.136400 1.730000 1.320000
46.151800 1.650000 1.280000
46.167200 1.620000 1.270000
46.182600 1.670000 1.290000
46.198000 1.760000 1.330000
46.213400 2.010000 1.420000
46.228800 2.140000 1.460000
46.244200 2.140000 1.460000
46.259600 2.380000 1.540000
46.275000 2.380000 1.540000
46.290400 2.280000 1.510000
46.305800 2.460000 1.570000
46.321200 2.180000 1.480000
46.336600 2.230000 1.490000
46.352000 1.730000 1.310000
46.367400 1.910000 1.380000
46.382800 1.590000 1.260000
46.398200 1.510000 1.230000
46.413600 1.640000 1.280000
46.429000 1.470000 1.210000
46.444400 1.710000 1.310000
46.459800 1.670000 1.290000
46.475200 1.570000 1.250000
46.490600 1.720000 1.310000
46.506000 1.660000 1.290000
46.521400 1.590000 1.260000
46.536800 1.710000 1.310000
46.552200 1.700000 1.300000
46.567600 1.810000 1.340000
46.583000 1.940000 1.390000
46.598400 2.210000 1.490000
46.613800 2.250000 1.500000
46.629200 1.890000 1.380000
46.644600 1.900000 1.380000
46.660000 1.950000 1.400000
46.675400 1.750000 1.320000
46.690800 1.520000 1.230000
46.706200 1.570000 1.250000
46.721600 1.520000 1.230000
46.737000 1.430000 1.200000
46.752400 1.450000 1.200000
46.767800 1.410000 1.190000
46.783200 1.410000 1.190000
46.798600 1.390000 1.180000
46.814000 1.310000 1.140000
46.829400 1.400000 1.180000
46.844800 1.280000 1.130000
46.860200 1.450000 1.200000
46.875600 1.300000 1.140000
46.891000 1.170000 1.080000
46.906400 1.380000 1.180000
46.921800 1.260000 1.120000
46.937200 1.320000 1.150000
46.952600 1.360000 1.160000
46.968000 1.410000 1.190000
46.983400 1.380000 1.180000
46.998800 1.390000 1.180000
47.014200 1.350000 1.160000
47.029600 1.470000 1.210000
47.045000 1.340000 1.160000
47.060400 1.400000 1.180000
47.075800 1.300000 1.140000
47.091200 1.340000 1.160000
47.106600 1.370000 1.170000
47.122000 1.330000 1.150000
47.137400 1.360000 1.160000
47.152800 1.340000 1.160000
47.168200 1.260000 1.120000
47.183600 1.400000 1.180000
47.199000 1.320000 1.150000
47.214400 1.290000 1.140000
47.229800 1.270000 1.130000
47.245200 1.280000 1.130000
47.260600 1.290000 1.140000
47.276000 1.330000 1.150000
47.291400 1.390000 1.180000
47.306800 1.400000 1.180000
47.322200 1.260000 1.120000
47.337600 1.330000 1.150000
47.353000 1.300000 1.140000
47.368400 1.370000 1.170000
47.383800 1.310000 1.150000
47.399200 1.390000 1.180000
47.414600 1.310000 1.150000
47.430000 1.360000 1.170000
47.445400 1.400000 1.180000
47.460800 1.440000 1.200000
47.476200 1.280000 1.130000
47.491600 1.420000 1.190000
47.507000 1.260000 1.120000
47.522400 1.360000 1.160000
47.537800 1.420000 1.190000
47.553200 1.490000 1.220000
47.568600 1.360000 1.170000
47.584000 1.540000 1.240000
47.599400 1.460000 1.210000
47.614800 1.530000 1.240000
47.630200 1.340000 1.160000
47.645600 1.460000 1.210000
47.661000 1.430000 1.200000
47.676400 1.370000 1.170000
47.691800 1.360000 1.170000
47.707200 1.240000 1.110000
47.722600 1.180000 1.090000
47.738000 1.370000 1.170000
47.753400 1.440000 1.200000
47.768800 1.340000 1.160000
47.784200 1.320000 1.150000
47.799600 1.330000 1.150000
47.815000 1.360000 1.170000
47.830400 1.330000 1.150000
47.845800 1.540000 1.240000
47.861200 1.470000 1.210000
47.876600 1.470000 1.210000
47.892000 1.420000 1.190000
47.907400 1.430000 1.200000
47.922800 1.490000 1.220000
47.938200 1.640000 1.280000
47.953600 1.650000 1.290000
47.969000 1.750000 1.320000
47.984400 1.830000 1.350000
47.999800 1.930000 1.390000
48.015200 2.010000 1.420000
48.030600 2.150000 1.470000
48.046000 2.300000 1.520000
48.061400 2.270000 1.510000
48.076800 2.550000 1.600000
48.092200 2.540000 1.590000
48.107600 2.210000 1.490000
48.123000 2.430000 1.560000
48.138400 1.990000 1.410000
48.153800 1.820000 1.350000
48.169200 1.510000 1.230000
48.184600 1.560000 1.250000
48.200000 1.540000 1.240000
48.215400 1.550000 1.240000
48.230800 1.390000 1.180000
48.246200 1.450000 1.200000
48.261600 1.390000 1.180000
48.277000 1.390000 1.180000
48.292400 1.460000 1.210000
48.307800 1.540000 1.240000
48.323200 1.370000 1.170000
48.338600 1.460000 1.210000
48.354000 1.450000 1.200000
48.369400 1.610000 1.270000
48.384800 1.710000 1.310000
48.400200 1.620000 1.270000
48.415600 1.640000 1.280000
48.431000 1.670000 1.290000
48.446400 1.590000 1.260000
48.461800 1.670000 1.290000
48.477200 1.710000 1.310000
48.492600 1.690000 1.300000
48.508000 1.600000 1.260000
48.523400 1.800000 1.340000
48.538800 1.620000 1.270000
48.554200 1.540000 1.240000
48.569600 1.620000 1.270000
48.585000 1.690000 1.300000
48.600400 1.740000 1.320000
48.615800 1.640000 1.280000
48.631200 1.940000 1.390000
48.646600 1.930000 1.390000
48.662000 1.910000 1.380000
48.677400 1.870000 1.370000
48.692800 1.930000 1.390000
48.708200 1.750000 1.320000
48.723600 1.720000 1.310000
48.739000 1.670000 1.290000
48.754400 1.660000 1.290000
48.769800 1.400000 1.180000
48.785200 1.420000 1.190000
48.800600 1.490000 1.220000
48.816000 1.530000 1.240000
48.831400 1.550000 1.250000
48.846800 1.460000 1.210000
48.862200 1.390000 1.180000
48.877600 1.660000 1.290000
48.893000 1.640000 1.280000
48.908400 1.780000 1.340000
48.923800 1.720000 1.310000
48.939200 1.750000 1.320000
48.954600 1.820000 1.350000
48.970000 1.820000 1.350000
48.985400 1.840000 1.360000
49.000800 1.770000 1.330000
49.016200 1.620000 1.270000
49.031600 1.600000 1.270000
49.047000 1.520000 1.230000
49.062400 1.480000 1.220000
49.077800 1.400000 1.180000
49.093200 1.370000 1.170000
49.108600 1.510000 1.230000
49.124000 1.370000 1.170000
49.139400 1.360000 1.170000
49.154800 1.390000 1.180000
49.170200 1.210000 1.100000
49.185600 1.230000 1.110000
49.201000 1.270000 1.130000
49.216400 1.310000 1.150000
49.231800 1.360000 1.170000
49.247200 1.280000 1.130000
49.262600 1.300000 1.140000
49.278000 1.250000 1.120000
49.293400 1.350000 1.160000
49.308800 1.370000 1.170000
49.324200 1.420000 1.190000
49.339600 1.300000 1.140000
49.355000 1.340000 1.160000
49.370400 1.280000 1.130000
49.385800 1.360000 1.170000
49.401200 1.440000 1.200000
49.416600 1.360000 1.160000
49.432000 1.480000 1.220000
49.447400 1.340000 1.160000
49.462800 1.290000 1.130000
49.478200 1.500000 1.220000
49.493600 1.360000 1.170000
49.509000 1.500000 1.220000
49.524400 1.470000 1.210000
49.539800 1.480000 1.220000
49.555200 1.490000 1.220000
49.570600 1.520000 1.230000
49.586000 1.740000 1.320000
49.601400 1.670000 1.290000
49.616800 1.860000 1.360000
49.632200 1.700000 1.300000
49.647600 1.830000 1.350000
49.663000 1.980000 1.410000
49.678400 2.190000 1.480000
49.693800 2.340000 1.530000
49.709200 2.670000 1.640000
49.724600 2.710000 1.650000
49.740000 3.290000 1.810000
49.755400 3.450000 1.860000
49.770800 3.970000 1.990000
49.786200 4.410000 2.100000
49.801600 5.230000 2.290000
49.817000 6.020000 2.450000
49.832400 6.460000 2.540000
49.847800 7.190000 2.680000
49.863200 8.150000 2.850000
49.878600 8.750000 2.960000
49.894000 8.910000 2.980000
49.909400 9.490000 3.080000
49.924800 9.710000 3.120000
49.940200 9.490000 3.080000
49.955600 9.030000 3.010000
49.971000 8.910000 2.980000
49.986400 8.660000 2.940000
50.001800 7.960000 2.820000
50.017200 7.070000 2.660000
50.032600 6.200000 2.490000
50.048000 5.220000 2.280000
50.063400 4.860000 2.200000
50.078800 4.630000 2.150000
50.094200 4.460000 2.110000
50.109600 4.720000 2.170000
50.125000 4.520000 2.130000
50.140400 4.260000 2.060000
50.155800 3.880000 1.970000
50.171200 3.550000 1.880000
50.186600 2.950000 1.720000
50.202000 2.780000 1.670000
50.217400 2.170000 1.470000
50.232800 2.130000 1.460000
50.248200 1.840000 1.360000
50.263600 1.720000 1.310000
50.279000 1.720000 1.310000
50.294400 1.560000 1.250000
50.309800 1.580000 1.260000
50.325200 1.550000 1.240000
50.340600 1.470000 1.210000
50.356000 1.470000 1.210000
50.371400 1.530000 1.240000
50.386800 1.460000 1.210000
50.402200 1.470000 1.210000
50.417600 1.530000 1.240000
50.433000 1.360000 1.170000
50.448400 1.380000 1.180000
50.463800 1.560000 1.250000
50.479200 1.460000 1.210000
50.494600 1.620000 1.270000
50.510000 1.640000 1.280000
50.525400 1.550000 1.250000
50.540800 1.670000 1.290000
50.556200 1.720000 1.310000
50.571600 1.920000 1.390000
50.587000 1.950000 1.400000
50.602400 2.050000 1.430000
50.617800 1.960000 1.400000
50.633200 2.410000 1.550000
50.648600 2.660000 1.630000
50.664000 2.970000 1.720000
50.679400 3.430000 1.850000
50.694800 3.760000 1.940000
50.710200 4.200000 2.050000
50.725600 5.000000 2.240000
50.741000 5.490000 2.340000
50.756400 6.340000 2.520000
50.771800 6.410000 2.530000
50.787200 7.050000 2.660000
50.802600 6.840000 2.620000
50.818000 6.270000 2.500000
50.833400 5.800000 2.410000
50.848800 4.930000 2.220000
50.864200 4.040000 2.010000
50.879600 3.140000 1.770000
50.895000 2.520000 1.590000
50.910400 2.230000 1.490000
50.925800 2.060000 1.430000
50.941200 1.760000 1.330000
50.956600 1.810000 1.350000
50.972000 1.570000 1.250000
50.987400 1.550000 1.250000
51.002800 1.480000 1.220000
51.018200 1.430000 1.200000
51.033600 1.540000 1.240000
51.049000 1.500000 1.230000
51.064400 1.250000 1.120000
51.079800 1.220000 1.100000
51.095200 1.310000 1.140000
51.110600 1.340000 1.160000
51.126000 1.430000 1.190000
51.141400 1.140000 1.070000
51.156800 1.250000 1.120000
51.172200 1.270000 1.130000
51.187600 1.290000 1.140000
51.203000 1.190000 1.090000
51.218400 1.220000 1.100000
51.233800 1.400000 1.180000
51.249200 1.180000 1.090000
51.264600 1.330000 1.150000
51.280000 1.300000 1.140000
51.295400 1.230000 1.110000
51.310800 1.120000 1.060000
51.326200 1.350000 1.160000
51.341600 1.230000 1.110000
51.357000 1.300000 1.140000
51.372400 1.230000 1.110000
51.387800 1.190000 1.090000
51.403200 1.220000 1.100000
51.418600 1.280000 1.130000
51.434000 1.200000 1.090000
51.449400 1.190000 1.090000
51.464800 1.290000 1.140000
51.480200 1.280000 1.130000
51.495600 1.180000 1.090000
51.511000 1.250000 1.120000
51.526400 1.170000 1.080000
51.541800 1.230000 1.110000
51.557200 1.320000 1.150000
51.572600 1.210000 1.100000
51.588000 1.210000 1.100000
51.603400 1.270000 1.130000
51.618800 1.240000 1.120000
51.634200 1.230000 1.110000
51.649600 1.330000 1.150000
51.665000 1.270000 1.130000
51.680400 1.220000 1.110000
51.695800 1.260000 1.120000
51.711200 1.410000 1.190000
51.726600 1.390000 1.180000
51.742000 1.190000 1.090000
51.757400 1.190000 1.090000
51.772800 1.380000 1.180000
51.788200 1.310000 1.140000
51.803600 1.320000 1.150000
51.819000 1.360000 1.170000
51.834400 1.560000 1.250000
51.849800 1.540000 1.240000
51.865200 1.480000 1.220000
51.880600 1.560000 1.250000
51.896000 1.580000 1.260000
51.911400 1.880000 1.370000
51.926800 1.920000 1.380000
51.942200 2.000000 1.410000
51.957600 2.100000 1.450000
51.973000 1.960000 1.400000
51.988400 1.850000 1.360000
52.003800 1.760000 1.330000
52.019200 1.760000 1.330000
52.034600 1.680000 1.290000
52.050000 1.430000 1.200000
52.065400 1.480000 1.220000
52.080800 1.530000 1.240000
52.096200 1.490000 1.220000
52.111600 1.400000 1.190000
52.127000 1.380000 1.170000
52.142400 1.340000 1.160000
52.157800 1.560000 1.250000
52.173200 1.430000 1.190000
52.188600 1.520000 1.230000
52.204000 1.530000 1.240000
52.219400 1.570000 1.250000
52.234800 1.810000 1.350000
52.250200 1.750000 1.320000
52.265600 1.890000 1.370000
52.281000 1.900000 1.380000
52.296400 1.880000 1.370000
52.311800 2.040000 1.430000
52.327200 2.010000 1.420000
52.342600 2.000000 1.420000
52.358000 1.960000 1.400000
52.373400 2.040000 1.430000
52.388800 1.950000 1.400000
52.404200 1.980000 1.410000
52.419600 1.890000 1.370000
52.435000 1.880000 1.370000
52.450400 1.940000 1.390000
52.465800 1.710000 1.310000
52.481200 1.700000 1.300000
52.496600 1.590000 1.260000
52.512000 1.460000 1.210000
52.527400 1.590000 1.260000
52.542800 1.230000 1.110000
52.558200 1.330000 1.150000
52.573600 1.290000 1.140000
52.589000 1.420000 1.190000
52.604400 1.350000 1.160000
52.619800 1.420000 1.190000
52.635200 1.340000 1.160000
52.650600 1.410000 1.190000
52.666000 1.470000 1.210000
52.681400 1.460000 1.210000
52.696800 1.620000 1.270000
52.712200 1.650000 1.280000
52.727600 1.770000 1.330000
52.743000 1.720000 1.310000
52.758400 1.770000 1.330000
52.773800 2.020000 1.420000
52.789200 2.080000 1.440000
52.804600 2.560000 1.600000
52.820000 2.670000 1.640000
52.835400 3.100000 1.760000
52.850800 3.480000 1.870000
52.866200 3.920000 1.980000
52.881600 4.660000 2.160000
52.897000 5.320000 2.310000
52.912400 6.090000 2.470000
52.927800 7.020000 2.650000
52.943200 8.130000 2.850000
52.958600 8.890000 2.980000
52.974000 9.310000 3.050000
52.989400 10.000000 3.160000
53.004800 9.750000 3.120000
53.020200 9.050000 3.010000
53.035600 7.850000 2.800000
53.051000 6.590000 2.570000
53.066400 5.000000 2.240000
53.081800 3.790000 1.950000
53.097200 2.980000 1.730000
53.112600 2.430000 1.560000
53.128000 2.250000 1.500000
53.143400 2.040000 1.430000
53.158800 1.700000 1.300000
53.174200 1.500000 1.230000
53.189600 1.530000 1.240000
53.205000 1.480000 1.220000
53.220400 1.380000 1.170000
53.235800 1.510000 1.230000
53.251200 1.410000 1.190000
53.266600 1.310000 1.140000
53.282000 1.360000 1.170000
53.297400 1.210000 1.100000
53.312800 1.170000 1.080000
53.328200 1.330000 1.150000
53.343600 1.300000 1.140000
53.359000 1.340000 1.160000
53.374400 1.300000 1.140000
53.389800 1.400000 1.180000
53.405200 1.330000 1.150000
53.420600 1.250000 1.120000
53.436000 1.320000 1.150000
53.451400 1.190000 1.090000
53.466800 1.310000 1.140000
53.482200 1.130000 1.060000
53.497600 1.320000 1.150000
53.513000 1.220000 1.100000
53.528400 1.350000 1.160000
53.543800 1.260000 1.120000
53.559200 1.300000 1.140000
53.574600 1.370000 1.170000
53.590000 1.540000 1.240000
53.605400 1.660000 1.290000
53.620800 1.510000 1.230000
53.636200 1.630000 1.280000
53.651600 1.550000 1.250000
53.667000 1.860000 1.360000
53.682400 1.910000 1.380000
53.697800 1.960000 1.400000
53.713200 2.120000 1.450000
53.728600 1.750000 1.320000
53.744000 1.850000 1.360000
53.759400 1.740000 1.320000
53.774800 1.640000 1.280000
53.790200 1.560000 1.250000
53.805600 1.470000 1.210000
53.821000 1.420000 1.190000
53.836400 1.480000 1.220000
53.851800 1.520000 1.230000
53.867200 1.460000 1.210000
53.882600 1.470000 1.210000
53.898000 1.510000 1.230000
53.913400 1.560000 1.250000
53.928800 1.500000 1.230000
53.944200 1.470000 1.210000
53.959600 1.540000 1.240000
53.975000 1.490000 1.220000
53.990400 1.410000 1.190000
54.005800 1.430000 1.200000
54.021200 1.490000 1.220000
54.036600 1.650000 1.290000
54.052000 1.340000 1.160000
54.067400 1.460000 1.210000
54.082800 1.500000 1.230000
54.098200 1.560000 1.250000
54.113600 1.700000 1.300000
54.129000 1.690000 1.300000
54.144400 1.690000 1.300000
54.159800 1.780000 1.340000
54.175200 1.770000 1.330000
54.190600 1.950000 1.400000
54.206000 2.080000 1.440000
54.221400 2.120000 1.460000
54.236800 2.030000 1.430000
54.252200 2.120000 1.460000
54.267600 1.930000 1.390000
54.283000 1.750000 1.320000
54.298400 1.600000 1.260000
54.313800 1.500000 1.230000
54.329200 1.290000 1.130000
54.344600 1.350000 1.160000
54.360000 1.180000 1.090000
54.375400 1.170000 1.080000
54.390800 1.250000 1.120000
54.406200 1.250000 1.120000
54.421600 1.090000 1.040000
54.437000 1.110000 1.060000
54.452400 1.160000 1.080000
54.467800 1.190000 1.090000
54.483200 1.050000 1.020000
54.498600 1.170000 1.080000
54.514000 1.020000 1.010000
54.529400 1.100000 1.050000
54.544800 1.210000 1.100000
54.560200 1.030000 1.010000
54.575600 1.210000 1.100000
54.591000 1.250000 1.120000
54.606400 1.190000 1.090000
54.621800 1.100000 1.050000
54.637200 1.160000 1.080000
54.652600 1.100000 1.050000
54.668000 1.180000 1.090000
54.683400 1.140000 1.070000
54.698800 1.200000 1.100000
54.714200 1.240000 1.110000
54.729600 1.180000 1.090000
54.745000 1.130000 1.060000
54.760400 1.200000 1.100000
54.775800 1.220000 1.100000
54.791200 1.220000 1.100000
54.806600 1.200000 1.090000
54.822000 1.210000 1.100000
54.837400 1.360000 1.170000
54.852800 1.350000 1.160000
54.868200 1.400000 1.180000
54.883600 1.320000 1.150000
54.899000 1.370000 1.170000
54.914400 1.550000 1.240000
54.929800 1.740000 1.320000
54.945200 1.830000 1.350000
54.960600 1.670000 1.290000
54.976000 1.860000 1.360000
54.991400 1.890000 1.370000
55.006800 1.970000 1.400000
55.022200 1.870000 1.370000
55.037600 1.960000 1.400000
55.053000 1.840000 1.360000
55.068400 1.720000 1.310000
55.083800 1.710000 1.310000
55.099200 1.670000 1.290000
55.114600 1.530000 1.240000
55.130000 1.590000 1.260000
55.145400 1.350000 1.160000
55.160800 1.470000 1.210000
55.176200 1.430000 1.190000
55.191600 1.480000 1.220000
55.207000 1.480000 1.220000
55.222400 1.270000 1.130000
55.237800 1.270000 1.130000
55.253200 1.240000 1.110000
55.268600 1.190000 1.090000
55.284000 1.180000 1.090000
55.299400 1.140000 1.070000
55.314800 1.210000 1.100000
55.330200 1.190000 1.090000
55.345600 1.200000 1.090000
55.361000 1.070000 1.030000
55.376400 1.150000 1.070000
55.391800 1.170000 1.080000
55.407200 1.130000 1.060000
55.422600 1.210000 1.100000
55.438000 1.270000 1.120000
55.453400 1.110000 1.050000
55.468800 1.040000 1.020000
55.484200 1.100000 1.050000
55.499600 1.060000 1.030000
55.515000 1.120000 1.060000
55.530400 1.190000 1.090000
55.545800 1.120000 1.060000
55.561200 1.200000 1.100000
55.576600 1.060000 1.030000
55.592000 1.160000 1.080000
55.607400 1.150000 1.070000
55.622800 1.210000 1.100000
55.638200 1.100000 1.050000
55.653600 1.200000 1.100000
55.669000 1.140000 1.070000
55.684400 1.220000 1.100000
55.699800 1.230000 1.110000
55.715200 1.210000 1.100000
55.730600 1.210000 1.100000
55.746000 1.320000 1.150000
55.761400 1.270000 1.130000
55.776800 1.150000 1.070000
55.792200 1.170000 1.080000
55.807600 1.270000 1.130000
55.823000 1.290000 1.140000
55.838400 1.270000 1.130000
55.853800 1.320000 1.150000
55.869200 1.370000 1.170000
55.884600 1.560000 1.250000
55.900000 1.500000 1.220000
55.915400 1.650000 1.280000
55.930800 1.600000 1.270000
55.946200 1.600000 1.270000
55.961600 1.670000 1.290000
55.977000 1.670000 1.290000
55.992400 1.780000 1.330000
56.007800 1.670000 1.290000
56.023200 1.520000 1.230000
56.038600 1.530000 1.240000
56.054000 1.430000 1.190000
56.069400 1.370000 1.170000
56.084800 1.350000 1.160000
56.100200 1.420000 1.190000
56.115600 1.320000 1.150000
56.131000 1.360000 1.170000
56.146400 1.440000 1.200000
56.161800 1.430000 1.200000
56.177200 1.570000 1.250000
56.192600 1.800000 1.340000
56.208000 1.680000 1.300000
56.223400 1.720000 1.310000
56.238800 1.830000 1.350000
56.254200 2.010000 1.420000
56.269600 2.200000 1.480000
56.285000 2.250000 1.500000
56.300400 2.090000 1.450000
56.315800 2.220000 1.490000
56.331200 2.130000 1.460000
56.346600 1.880000 1.370000
56.362000 1.810000 1.350000
56.377400 1.470000 1.210000
56.392800 1.480000 1.220000
56.408200 1.440000 1.200000
56.423600 1.440000 1.200000
56.439000 1.380000 1.170000
56.454400 1.360000 1.170000
56.469800 1.380000 1.170000
56.485200 1.500000 1.220000
56.500600 1.430000 1.200000
56.516000 1.550000 1.240000
56.531400 1.570000 1.250000
56.546800 1.650000 1.280000
56.562200 1.670000 1.290000
56.577600 1.760000 1.330000
56.593000 1.950000 1.400000
56.608400 2.060000 1.440000
56.623800 2.120000 1.460000
56.639200 2.160000 1.470000
56.654600 2.480000 1.570000
56.670000 2.800000 1.670000
56.685400 3.000000 1.730000
56.700800 3.390000 1.840000
56.716200 3.720000 1.930000
56.731600 4.140000 2.040000
56.747000 4.820000 2.200000
56.762400 5.400000 2.320000
56.777800 5.990000 2.450000
56.793200 6.580000 2.560000
56.808600 7.360000 2.710000
56.824000 7.440000 2.730000
56.839400 7.410000 2.720000
56.854800 7.220000 2.690000
56.870200 6.940000 2.630000
56.885600 6.620000 2.570000
56.901000 5.900000 2.430000
56.916400 5.550000 2.360000
56.931800 5.290000 2.300000
56.947200 5.130000 2.260000
56.962600 4.760000 2.180000
56.978000 4.400000 2.100000
56.993400 3.930000 1.980000
57.008800 3.430000 1.850000
57.024200 3.030000 1.740000
57.039600 2.480000 1.570000
57.055000 2.230000 1.490000
57.070400 2.070000 1.440000
57.085800 1.960000 1.400000
57.101200 1.590000 1.260000
57.116600 1.630000 1.280000
57.132000 1.660000 1.290000
57.147400 1.560000 1.250000
57.162800 1.480000 1.220000
57.178200 1.390000 1.180000
57.193600 1.400000 1.180000
57.209000 1.250000 1.120000
57.224400 1.210000 1.100000
57.239800 1.190000 1.090000
57.255200 1.240000 1.110000
57.270600 1.290000 1.140000
57.286000 1.230000 1.110000
57.301400 1.230000 1.110000
57.316800 1.170000 1.080000
57.332200 1.240000 1.120000
57.347600 1.220000 1.100000
57.363000 1.270000 1.130000
57.378400 1.210000 1.100000
57.393800 1.100000 1.050000
57.409200 1.220000 1.110000
57.424600 1.120000 1.060000
57.440000 1.060000 1.030000
57.455400 1.260000 1.120000
57.470800 1.290000 1.140000
57.486200 1.350000 1.160000
57.501600 1.170000 1.080000
57.517000 1.260000 1.120000
57.532400 1.360000 1.160000
57.547800 1.230000 1.110000
57.563200 1.300000 1.140000
57.578600 1.400000 1.180000
57.594000 1.470000 1.210000
57.609400 1.530000 1.240000
57.624800 1.600000 1.270000
57.640200 1.760000 1.330000
57.655600 1.850000 1.360000
57.671000 1.830000 1.350000
57.686400 2.100000 1.450000
57.701800 2.130000 1.460000
57.717200 2.420000 1.560000
57.732600 2.490000 1.580000
57.748000 2.720000 1.650000
57.763400 2.710000 1.650000
57.778800 3.290000 1.810000
57.794200 3.380000 1.840000
57.809600 3.560000 1.890000
57.825000 3.510000 1.870000
57.840400 3.490000 1.870000
57.855800 3.470000 1.860000
57.871200 2.980000 1.730000
57.886600 2.640000 1.630000
57.902000 2.330000 1.530000
57.917400 2.310000 1.520000
57.932800 2.060000 1.430000
57.948200 1.990000 1.410000
57.963600 1.880000 1.370000
57.979000 1.630000 1.280000
57.994400 1.520000 1.230000
58.009800 1.510000 1.230000
58.025200 1.380000 1.170000
58.040600 1.430000 1.200000
58.056000 1.530000 1.240000
58.071400 1.430000 1.190000
58.086800 1.440000 1.200000
58.102200 1.410000 1.190000
58.117600 1.420000 1.190000
58.133000 1.480000 1.220000
58.148400 1.460000 1.210000
58.163800 1.500000 1.230000
58.179200 1.450000 1.210000
58.194600 1.260000 1.120000
58.210000 1.280000 1.130000
58.225400 1.220000 1.100000
58.240800 1.230000 1.110000
58.256200 1.170000 1.080000
58.271600 1.250000 1.120000
58.287000 1.070000 1.040000
58.302400 1.080000 1.040000
58.317800 1.130000 1.060000
58.333200 1.170000 1.080000
58.348600 1.030000 1.020000
58.364000 1.120000 1.060000
58.379400 1.250000 1.120000
58.394800 1.080000 1.040000
58.410200 1.170000 1.080000
58.425600 1.120000 1.060000
58.441000 1.110000 1.050000
58.456400 1.120000 1.060000
58.471800 1.110000 1.050000
58.487200 1.170000 1.080000
58.502600 1.210000 1.100000
58.518000 1.120000 1.060000
58.533400 1.030000 1.010000
58.548800 1.050000 1.020000
58.564200 1.050000 1.020000
58.579600 1.080000 1.040000
58.595000 1.050000 1.020000
58.610400 1.150000 1.070000
58.625800 1.170000 1.080000
58.641200 1.190000 1.090000
58.656600 1.140000 1.070000
58.672000 1.080000 1.040000
58.687400 1.160000 1.080000
58.702800 1.180000 1.090000
58.718200 1.140000 1.070000
58.733600 1.210000 1.100000
58.749000 1.220000 1.110000
58.764400 1.250000 1.120000
58.779800 1.440000 1.200000
58.795200 1.380000 1.170000
58.810600 1.310000 1.150000
58.826000 1.250000 1.120000
58.841400 1.360000 1.170000
58.856800 1.300000 1.140000
58.872200 1.390000 1.180000
58.887600 1.270000 1.130000
58.903000 1.330000 1.150000
58.918400 1.410000 1.190000
58.933800 1.420000 1.190000
58.949200 1.280000 1.130000
58.964600 1.100000 1.050000
58.980000 1.160000 1.080000
58.995400 1.210000 1.100000
59.010800 1.170000 1.080000
59.026200 1.070000 1.040000
59.041600 0.950000 0.970000
59.057000 1.200000 1.090000
59.072400 1.010000 1.010000
59.087800 1.100000 1.050000
59.103200 1.100000 1.050000
59.118600 1.020000 1.010000
59.134000 1.150000 1.070000
59.149400 1.200000 1.100000
59.164800 1.120000 1.060000
59.180200 1.100000 1.050000
59.195600 1.090000 1.050000
59.211000 1.150000 1.070000
59.226400 1.120000 1.060000
59.241800 1.210000 1.100000
59.257200 1.120000 1.060000
59.272600 1.220000 1.110000
59.288000 1.190000 1.090000
59.303400 1.200000 1.100000
59.318800 1.190000 1.090000
59.334200 1.220000 1.100000
59.349600 1.230000 1.110000
59.365000 1.230000 1.110000
59.380400 1.290000 1.130000
59.395800 1.450000 1.200000
59.411200 1.390000 1.180000
59.426600 1.610000 1.270000
59.442000 1.610000 1.270000
59.457400 1.740000 1.320000
59.472800 1.800000 1.340000
59.488200 2.000000 1.410000
59.503600 2.130000 1.460000
59.519000 2.230000 1.490000
59.534400 2.240000 1.500000
59.549800 2.390000 1.550000
59.565200 2.620000 1.620000
59.580600 2.480000 1.580000
59.596000 2.430000 1.560000
59.611400 2.140000 1.460000
59.626800 1.910000 1.380000
59.642200 1.720000 1.310000
59.657600 1.720000 1.310000
59.673000 1.570000 1.250000
59.688400 1.430000 1.190000
59.703800 1.380000 1.180000
59.719200 1.350000 1.160000
59.734600 1.420000 1.190000
59.750000 1.530000 1.240000
59.765400 1.530000 1.240000
59.780800 1.560000 1.250000
59.796200 1.680000 1.300000
59.811600 1.620000 1.270000
59.827000 1.720000 1.310000
59.842400 1.860000 1.360000
59.857800 2.020000 1.420000
59.873200 2.240000 1.500000
59.888600 2.600000 1.610000
59.904000 2.600000 1.610000
59.919400 2.870000 1.690000
59.934800 3.300000 1.820000
59.950200 3.820000 1.960000
59.965600 4.130000 2.030000
59.981000 4.540000 2.130000
59.996400 5.090000 2.260000
